# OpenSignals Text File Format
# {"00:80:E1:26:9F:85":{"sensor":["EMG"],"device name":"00:80:E1:26:9F:85","column":["timestamp","EMG"],"sync interval":2,"time":"13:21:29","comments":"","keywords":"","device connection":"BLE00:80:E1:26:9F:85","channels":[0],"date":"2024-11-27","mode":0,"digital IO":[],"firmware version":259,"device":"musclebanplux","position":0,"sampling rate":1000,"label":["EMG"],"resolution":[16],"special":[{}],"sleeve color":["UNKNOWN"]}}
# EndOfHeader
1732710090415	-2.2888184E-4	
1732710090416	0.0012969971	
1732710090417	0.0060272217	
1732710090418	0.0032043457	
1732710090419	0.0012207031	
1732710090420	0.006866455	
1732710090421	0.006790161	
1732710090422	0.008239746	
1732710090423	0.0024414062	
1732710090424	-0.0032043457	
1732710090425	-2.2888184E-4	
1732710090426	-0.005722046	
1732710090427	-0.004043579	
1732710090428	-0.0011444092	
1732710090429	-0.009536743	
1732710090430	-0.00541687	
1732710090431	-2.2888184E-4	
1732710090432	-0.0016021729	
1732710090433	-0.0033569336	
1732710090434	-0.0022888184	
1732710090435	-0.0033569336	
1732710090436	-0.009841919	
1732710090437	-0.0030517578	
1732710090438	0.004348755	
1732710090439	0.0049591064	
1732710090440	0.003967285	
1732710090441	-0.0015258789	
1732710090442	6.866455E-4	
1732710090443	0.00579834	
1732710090444	0.0051116943	
1732710090445	0.0048828125	
1732710090446	-0.0012207031	
1732710090447	-0.00289917	
1732710090448	3.0517578E-4	
1732710090449	0.0012207031	
1732710090450	0.00579834	
1732710090451	8.392334E-4	
1732710090452	-0.0077056885	
1732710090453	-0.0020599365	
1732710090454	0.0015258789	
1732710090455	-0.004425049	
1732710090456	-0.0036621094	
1732710090457	6.1035156E-4	
1732710090458	-0.005493164	
1732710090459	-0.004425049	
1732710090460	0.002822876	
1732710090461	0.003967285	
1732710090462	0.004348755	
1732710090463	0.0032043457	
1732710090464	-3.8146973E-4	
1732710090465	-0.0032806396	
1732710090466	-0.0019073486	
1732710090467	0.0035858154	
1732710090468	0.0051116943	
1732710090469	-0.0045776367	
1732710090470	-0.002822876	
1732710090471	0.0064849854	
1732710090472	0.004501343	
1732710090473	0.0025177002	
1732710090474	-2.2888184E-4	
1732710090475	-0.0012969971	
1732710090476	5.340576E-4	
1732710090477	-0.005264282	
1732710090478	-0.005874634	
1732710090479	0.0010681152	
1732710090480	0.0060272217	
1732710090481	0.005493164	
1732710090482	-6.1035156E-4	
1732710090483	-0.001449585	
1732710090484	0.0016784668	
1732710090485	-0.0032806396	
1732710090486	-0.0075531006	
1732710090487	-0.0016021729	
1732710090488	-0.0024414062	
1732710090489	-0.004272461	
1732710090490	-8.392334E-4	
1732710090491	-0.005569458	
1732710090492	-0.004425049	
1732710090493	-0.0016021729	
1732710090494	0.0038146973	
1732710090495	0.008621216	
1732710090496	-0.002822876	
1732710090497	-0.0016784668	
1732710090498	-7.6293945E-5	
1732710090499	0.0019073486	
1732710090500	0.0063323975	
1732710090501	-0.0065612793	
1732710090502	-0.0033569336	
1732710090503	0.0025177002	
1732710090504	-0.0017547607	
1732710090505	-0.0016021729	
1732710090506	0.00289917	
1732710090507	0.009384155	
1732710090508	0.010299683	
1732710090509	0.0046539307	
1732710090510	-0.0049591064	
1732710090511	-0.010681152	
1732710090512	-0.008468628	
1732710090513	-0.002670288	
1732710090514	0.007247925	
1732710090515	0.0051879883	
1732710090516	0.0011444092	
1732710090517	0.0030517578	
1732710090518	0.0022888184	
1732710090519	0.0038909912	
1732710090520	-6.866455E-4	
1732710090521	-0.0062561035	
1732710090522	9.918213E-4	
1732710090523	0.005722046	
1732710090524	-0.00541687	
1732710090525	-0.005874634	
1732710090526	-0.0011444092	
1732710090527	-0.0051879883	
1732710090528	-0.001449585	
1732710090529	0.0022125244	
1732710090530	0.0032043457	
1732710090531	-0.0024414062	
1732710090532	-0.00579834	
1732710090533	-3.8146973E-4	
1732710090534	0.004501343	
1732710090535	0.0038909912	
1732710090536	-0.0017547607	
1732710090537	-0.0010681152	
1732710090538	-5.340576E-4	
1732710090539	-0.0031280518	
1732710090540	-0.001449585	
1732710090541	-0.0016784668	
1732710090542	2.2888184E-4	
1732710090543	6.866455E-4	
1732710090544	-0.0062561035	
1732710090545	-0.0019836426	
1732710090546	6.1035156E-4	
1732710090547	-2.2888184E-4	
1732710090548	0.0065612793	
1732710090549	0.009307861	
1732710090550	0.0033569336	
1732710090551	-0.0023651123	
1732710090552	4.5776367E-4	
1732710090553	0.0012207031	
1732710090554	-0.004196167	
1732710090555	-0.00541687	
1732710090556	-0.007095337	
1732710090557	-0.0024414062	
1732710090558	0.007095337	
1732710090559	-1.5258789E-4	
1732710090560	-0.0012969971	
1732710090561	0.0038909912	
1732710090562	1.5258789E-4	
1732710090563	0.002670288	
1732710090564	0.0047302246	
1732710090565	0.008468628	
1732710090566	0.0061798096	
1732710090567	-6.1035156E-4	
1732710090568	-0.00289917	
1732710090569	-0.006866455	
1732710090570	-0.004272461	
1732710090571	-0.0036621094	
1732710090572	-0.004348755	
1732710090573	-0.002670288	
1732710090574	-0.0025177002	
1732710090575	3.8146973E-4	
1732710090576	-0.0017547607	
1732710090577	-7.6293945E-4	
1732710090578	0.0061035156	
1732710090579	0.0064086914	
1732710090580	0.0032806396	
1732710090581	-0.0032043457	
1732710090582	-0.004119873	
1732710090583	-0.0025177002	
1732710090584	-0.004272461	
1732710090585	-0.0025177002	
1732710090586	0.001449585	
1732710090587	0.0021362305	
1732710090588	-0.0018310547	
1732710090589	0.0017547607	
1732710090590	0.0035095215	
1732710090591	-0.0022125244	
1732710090592	-0.002670288	
1732710090593	0.001373291	
1732710090594	0.0049591064	
1732710090595	0.003967285	
1732710090596	-0.0025939941	
1732710090597	0.0016021729	
1732710090598	0.0011444092	
1732710090599	-0.008850098	
1732710090600	-0.0034332275	
1732710090601	0.0012969971	
1732710090602	-9.918213E-4	
1732710090603	-0.001373291	
1732710090604	-0.002822876	
1732710090605	-0.0022125244	
1732710090606	-6.1035156E-4	
1732710090607	0.008010864	
1732710090608	0.008621216	
1732710090609	-0.0015258789	
1732710090610	0.005493164	
1732710090611	0.0051116943	
1732710090612	-0.0050354004	
1732710090613	0.002670288	
1732710090614	0.0060272217	
1732710090615	-0.0031280518	
1732710090616	-0.0017547607	
1732710090617	6.866455E-4	
1732710090618	-0.004196167	
1732710090619	-0.0066375732	
1732710090620	-0.0065612793	
1732710090621	0.002822876	
1732710090622	0.0010681152	
1732710090623	-0.013198853	
1732710090624	-0.00831604	
1732710090625	-3.0517578E-4	
1732710090626	0.0025939941	
1732710090627	0.0059509277	
1732710090628	-7.6293945E-5	
1732710090629	-0.005340576	
1732710090630	-0.0038909912	
1732710090631	0.0019836426	
1732710090632	0.007247925	
1732710090633	-2.2888184E-4	
1732710090634	1.5258789E-4	
1732710090635	0.0022125244	
1732710090636	0.0022888184	
1732710090637	0.0022888184	
1732710090638	-0.005569458	
1732710090639	0.002746582	
1732710090640	0.009002686	
1732710090641	0.004272461	
1732710090642	0.005264282	
1732710090643	-4.5776367E-4	
1732710090644	4.5776367E-4	
1732710090645	0.0050354004	
1732710090646	0.0025939941	
1732710090647	0.0061035156	
1732710090648	0.0024414062	
1732710090649	-0.006866455	
1732710090650	-0.004043579	
1732710090651	-7.6293945E-4	
1732710090652	-0.007171631	
1732710090653	-0.01121521	
1732710090654	-0.0051879883	
1732710090655	-0.0045776367	
1732710090656	-0.0048828125	
1732710090657	-9.918213E-4	
1732710090658	-0.0016021729	
1732710090659	-0.0030517578	
1732710090660	0.004043579	
1732710090661	0.006942749	
1732710090662	-0.004272461	
1732710090663	-0.005340576	
1732710090664	-0.0011444092	
1732710090665	-0.0020599365	
1732710090666	0.0077056885	
1732710090667	0.007858276	
1732710090668	-0.0019836426	
1732710090669	0.0012969971	
1732710090670	0.0045776367	
1732710090671	0.005569458	
1732710090672	0.005493164	
1732710090673	-0.002822876	
1732710090674	-0.0034332275	
1732710090675	0.0024414062	
1732710090676	0.0036621094	
1732710090677	0.0018310547	
1732710090678	-0.0022125244	
1732710090679	-0.0031280518	
1732710090680	-0.0048828125	
1732710090681	-0.0065612793	
1732710090682	-0.0024414062	
1732710090683	0.0047302246	
1732710090684	0.004425049	
1732710090685	-2.2888184E-4	
1732710090686	-6.866455E-4	
1732710090687	-0.0047302246	
1732710090688	-0.0066375732	
1732710090689	-0.001373291	
1732710090690	-0.001449585	
1732710090691	-0.0022125244	
1732710090692	0.0046539307	
1732710090693	0.004043579	
1732710090694	0.0022888184	
1732710090695	0.0061035156	
1732710090696	7.6293945E-4	
1732710090697	0.0018310547	
1732710090698	0.007095337	
1732710090699	-0.0010681152	
1732710090700	-0.0059509277	
1732710090701	-0.007247925	
1732710090702	-0.0064086914	
1732710090703	0.0015258789	
1732710090704	0.005569458	
1732710090705	0.00579834	
1732710090706	7.6293945E-4	
1732710090707	-0.0025177002	
1732710090708	0.0	
1732710090709	-0.004425049	
1732710090710	-0.004425049	
1732710090711	-0.0018310547	
1732710090712	-0.0061035156	
1732710090713	-0.005493164	
1732710090714	-0.0010681152	
1732710090715	6.866455E-4	
1732710090716	0.0074768066	
1732710090717	0.0048065186	
1732710090718	-0.005645752	
1732710090719	-0.0036621094	
1732710090720	-0.003967285	
1732710090721	0.00289917	
1732710090722	0.005645752	
1732710090723	-0.004196167	
1732710090724	0.001449585	
1732710090725	0.012435913	
1732710090726	0.012588501	
1732710090727	-0.0019073486	
1732710090728	-0.008544922	
1732710090729	-0.0012969971	
1732710090730	-0.0036621094	
1732710090731	-0.004119873	
1732710090732	0.001449585	
1732710090733	0.0012969971	
1732710090734	0.0016021729	
1732710090735	0.0060272217	
1732710090736	0.00831604	
1732710090737	-0.0015258789	
1732710090738	-0.0047302246	
1732710090739	0.0012969971	
1732710090740	-0.003967285	
1732710090741	-0.0025177002	
1732710090742	9.1552734E-4	
1732710090743	-0.004043579	
1732710090744	-0.0046539307	
1732710090745	-0.0050354004	
1732710090746	-0.004119873	
1732710090747	6.866455E-4	
1732710090748	9.918213E-4	
1732710090749	-0.0038146973	
1732710090750	-0.0038909912	
1732710090751	0.0019836426	
1732710090752	0.001373291	
1732710090753	0.0019836426	
1732710090754	0.0032806396	
1732710090755	7.6293945E-4	
1732710090756	0.0012969971	
1732710090757	-0.0038909912	
1732710090758	-7.6293945E-4	
1732710090759	0.004348755	
1732710090760	0.0045776367	
1732710090761	0.0019836426	
1732710090762	-0.005722046	
1732710090763	0.0035095215	
1732710090764	0.016860962	
1732710090765	0.013580322	
1732710090766	-0.001449585	
1732710090767	-0.010375977	
1732710090768	-0.0023651123	
1732710090769	8.392334E-4	
1732710090770	-0.009536743	
1732710090771	-0.0036621094	
1732710090772	-0.0025939941	
1732710090773	-0.0074768066	
1732710090774	6.866455E-4	
1732710090775	-0.0031280518	
1732710090776	6.1035156E-4	
1732710090777	0.0061035156	
1732710090778	7.6293945E-4	
1732710090779	6.866455E-4	
1732710090780	-0.0047302246	
1732710090781	-0.0051879883	
1732710090782	-6.866455E-4	
1732710090783	7.6293945E-4	
1732710090784	6.1035156E-4	
1732710090785	-8.392334E-4	
1732710090786	0.0019073486	
1732710090787	4.5776367E-4	
1732710090788	-2.2888184E-4	
1732710090789	0.005493164	
1732710090790	6.1035156E-4	
1732710090791	-0.0050354004	
1732710090792	7.6293945E-4	
1732710090793	9.1552734E-4	
1732710090794	-0.0032043457	
1732710090795	0.004272461	
1732710090796	0.001449585	
1732710090797	-0.007247925	
1732710090798	-0.0011444092	
1732710090799	-6.866455E-4	
1732710090800	5.340576E-4	
1732710090801	-0.0015258789	
1732710090802	-0.0046539307	
1732710090803	0.0030517578	
1732710090804	0.0033569336	
1732710090805	0.009536743	
1732710090806	0.0075531006	
1732710090807	-0.0034332275	
1732710090808	0.0049591064	
1732710090809	0.004272461	
1732710090810	0.0	
1732710090811	-7.6293945E-5	
1732710090812	-0.00289917	
1732710090813	9.1552734E-4	
1732710090814	-0.0032043457	
1732710090815	-0.004348755	
1732710090816	0.0011444092	
1732710090817	-0.0051879883	
1732710090818	-0.004425049	
1732710090819	0.0030517578	
1732710090820	0.0010681152	
1732710090821	0.002746582	
1732710090822	-7.6293945E-4	
1732710090823	-0.0037384033	
1732710090824	0.005264282	
1732710090825	0.0024414062	
1732710090826	-0.005645752	
1732710090827	-0.0063323975	
1732710090828	-0.010375977	
1732710090829	-0.009231567	
1732710090830	-0.0063323975	
1732710090831	-0.0049591064	
1732710090832	0.00289917	
1732710090833	0.0029754639	
1732710090834	-0.0017547607	
1732710090835	0.005645752	
1732710090836	0.009002686	
1732710090837	0.0061035156	
1732710090838	0.008087158	
1732710090839	0.005493164	
1732710090840	0.0012969971	
1732710090841	0.004348755	
1732710090842	-3.8146973E-4	
1732710090843	-0.0029754639	
1732710090844	0.0022888184	
1732710090845	-0.00289917	
1732710090846	7.6293945E-4	
1732710090847	0.0021362305	
1732710090848	-0.005264282	
1732710090849	-6.866455E-4	
1732710090850	-7.6293945E-4	
1732710090851	-0.0019073486	
1732710090852	-0.0019073486	
1732710090853	-0.005264282	
1732710090854	-3.8146973E-4	
1732710090855	0.0019836426	
1732710090856	-4.5776367E-4	
1732710090857	0.0011444092	
1732710090858	0.0	
1732710090859	-3.8146973E-4	
1732710090860	-4.5776367E-4	
1732710090861	-0.0015258789	
1732710090862	-0.0037384033	
1732710090863	-0.004119873	
1732710090864	0.0	
1732710090865	-0.0018310547	
1732710090866	0.0019836426	
1732710090867	0.009231567	
1732710090868	0.00289917	
1732710090869	-0.0010681152	
1732710090870	0.002746582	
1732710090871	1.5258789E-4	
1732710090872	-0.002822876	
1732710090873	-0.0016021729	
1732710090874	-8.392334E-4	
1732710090875	-0.0024414062	
1732710090876	0.0016784668	
1732710090877	0.005645752	
1732710090878	4.5776367E-4	
1732710090879	5.340576E-4	
1732710090880	-3.0517578E-4	
1732710090881	-0.0025177002	
1732710090882	0.0012207031	
1732710090883	-0.0022125244	
1732710090884	-0.0019836426	
1732710090885	0.0036621094	
1732710090886	-0.0035858154	
1732710090887	-0.0030517578	
1732710090888	-4.5776367E-4	
1732710090889	-0.0035095215	
1732710090890	0.004272461	
1732710090891	0.0023651123	
1732710090892	-0.0031280518	
1732710090893	-0.0010681152	
1732710090894	-0.0038909912	
1732710090895	0.0019073486	
1732710090896	0.0016784668	
1732710090897	-0.0020599365	
1732710090898	-0.0030517578	
1732710090899	-0.007858276	
1732710090900	-6.1035156E-4	
1732710090901	0.0032806396	
1732710090902	0.00579834	
1732710090903	0.0077056885	
1732710090904	0.0019836426	
1732710090905	0.0016784668	
1732710090906	-0.0025939941	
1732710090907	-0.009002686	
1732710090908	-0.0020599365	
1732710090909	0.0035858154	
1732710090910	-0.001449585	
1732710090911	-0.0016021729	
1732710090912	0.001449585	
1732710090913	-0.0022125244	
1732710090914	-0.0063323975	
1732710090915	-0.004043579	
1732710090916	0.0036621094	
1732710090917	0.0074768066	
1732710090918	0.009918213	
1732710090919	0.009994507	
1732710090920	-1.5258789E-4	
1732710090921	-0.006866455	
1732710090922	7.6293945E-5	
1732710090923	0.004348755	
1732710090924	-0.0016784668	
1732710090925	0.0016784668	
1732710090926	0.004501343	
1732710090927	-0.008163452	
1732710090928	-0.006713867	
1732710090929	0.004196167	
1732710090930	-0.0017547607	
1732710090931	-0.0050354004	
1732710090932	0.0064086914	
1732710090933	0.0035095215	
1732710090934	-0.002822876	
1732710090935	-0.0030517578	
1732710090936	-0.0059509277	
1732710090937	1.5258789E-4	
1732710090938	0.0023651123	
1732710090939	2.2888184E-4	
1732710090940	-2.2888184E-4	
1732710090941	-0.0061035156	
1732710090942	-0.001373291	
1732710090943	0.004043579	
1732710090944	-3.0517578E-4	
1732710090945	0.0010681152	
1732710090946	-0.0025177002	
1732710090947	-0.0031280518	
1732710090948	0.0034332275	
1732710090949	7.6293945E-5	
1732710090950	-0.002670288	
1732710090951	-0.004425049	
1732710090952	-0.0019836426	
1732710090953	0.004119873	
1732710090954	0.0031280518	
1732710090955	-7.6293945E-5	
1732710090956	-1.5258789E-4	
1732710090957	-3.0517578E-4	
1732710090958	0.0032043457	
1732710090959	0.0037384033	
1732710090960	-3.8146973E-4	
1732710090961	-5.340576E-4	
1732710090962	-0.0036621094	
1732710090963	-0.0034332275	
1732710090964	-0.0022888184	
1732710090965	-0.0017547607	
1732710090966	0.006942749	
1732710090967	0.008773804	
1732710090968	-0.0019836426	
1732710090969	-0.004272461	
1732710090970	6.866455E-4	
1732710090971	-0.0030517578	
1732710090972	0.0023651123	
1732710090973	0.010299683	
1732710090974	0.0024414062	
1732710090975	0.0022125244	
1732710090976	-3.0517578E-4	
1732710090977	-0.008621216	
1732710090978	-0.0020599365	
1732710090979	-6.866455E-4	
1732710090980	-0.0066375732	
1732710090981	-7.6293945E-5	
1732710090982	-0.0022888184	
1732710090983	-0.006866455	
1732710090984	0.001373291	
1732710090985	-8.392334E-4	
1732710090986	-0.007247925	
1732710090987	0.0019836426	
1732710090988	0.009155273	
1732710090989	0.0051879883	
1732710090990	9.918213E-4	
1732710090991	-0.0077056885	
1732710090992	-0.0049591064	
1732710090993	0.009307861	
1732710090994	0.006790161	
1732710090995	-0.006866455	
1732710090996	-0.009002686	
1732710090997	-0.005264282	
1732710090998	-3.8146973E-4	
1732710090999	0.004119873	
1732710091000	0.0012969971	
1732710091001	0.0064849854	
1732710091002	0.015335083	
1732710091003	0.006866455	
1732710091004	-0.0045776367	
1732710091005	0.0	
1732710091006	-9.1552734E-4	
1732710091007	-0.0023651123	
1732710091008	0.0020599365	
1732710091009	-0.0018310547	
1732710091010	-0.002670288	
1732710091011	-0.0025177002	
1732710091012	2.2888184E-4	
1732710091013	-0.0022888184	
1732710091014	-0.004196167	
1732710091015	0.0031280518	
1732710091016	-0.005264282	
1732710091017	-0.008926392	
1732710091018	0.0012969971	
1732710091019	0.001373291	
1732710091020	5.340576E-4	
1732710091021	0.001449585	
1732710091022	0.0012969971	
1732710091023	0.0029754639	
1732710091024	6.866455E-4	
1732710091025	-0.001449585	
1732710091026	-0.001449585	
1732710091027	-0.0016021729	
1732710091028	-0.0017547607	
1732710091029	-0.0018310547	
1732710091030	0.0045776367	
1732710091031	0.007095337	
1732710091032	0.0015258789	
1732710091033	-0.0020599365	
1732710091034	-0.0033569336	
1732710091035	-0.0045776367	
1732710091036	-0.0045776367	
1732710091037	-0.0035095215	
1732710091038	-0.001449585	
1732710091039	0.003967285	
1732710091040	0.004348755	
1732710091041	-0.0015258789	
1732710091042	6.866455E-4	
1732710091043	0.007247925	
1732710091044	0.0061035156	
1732710091045	0.0022888184	
1732710091046	0.0032043457	
1732710091047	-0.0022125244	
1732710091048	-0.005493164	
1732710091049	-0.004425049	
1732710091050	-0.004348755	
1732710091051	-0.0019073486	
1732710091052	8.392334E-4	
1732710091053	0.0064086914	
1732710091054	0.006713867	
1732710091055	-9.918213E-4	
1732710091056	-0.0061035156	
1732710091057	-0.0038146973	
1732710091058	4.5776367E-4	
1732710091059	-7.6293945E-5	
1732710091060	-0.002670288	
1732710091061	-0.0019836426	
1732710091062	0.0025177002	
1732710091063	0.0017547607	
1732710091064	-9.918213E-4	
1732710091065	0.005722046	
1732710091066	0.003967285	
1732710091067	-0.0035095215	
1732710091068	-0.0021362305	
1732710091069	-0.0033569336	
1732710091070	0.0012207031	
1732710091071	0.0066375732	
1732710091072	-0.0061798096	
1732710091073	-0.013122559	
1732710091074	-9.918213E-4	
1732710091075	0.0061035156	
1732710091076	5.340576E-4	
1732710091077	-0.001373291	
1732710091078	0.0023651123	
1732710091079	0.0	
1732710091080	0.001373291	
1732710091081	-6.1035156E-4	
1732710091082	-0.0016021729	
1732710091083	0.004196167	
1732710091084	0.002822876	
1732710091085	-0.009002686	
1732710091086	-0.006942749	
1732710091087	0.004119873	
1732710091088	7.6293945E-4	
1732710091089	-0.0012207031	
1732710091090	0.0024414062	
1732710091091	0.004272461	
1732710091092	0.0036621094	
1732710091093	9.918213E-4	
1732710091094	3.8146973E-4	
1732710091095	-0.001373291	
1732710091096	-0.004272461	
1732710091097	-0.0016021729	
1732710091098	0.0019073486	
1732710091099	0.0012207031	
1732710091100	0.0016021729	
1732710091101	0.0012969971	
1732710091102	-0.005340576	
1732710091103	-0.004425049	
1732710091104	0.005645752	
1732710091105	0.0065612793	
1732710091106	0.0022125244	
1732710091107	0.0035858154	
1732710091108	4.5776367E-4	
1732710091109	-0.004196167	
1732710091110	0.0021362305	
1732710091111	0.0037384033	
1732710091112	-0.0035858154	
1732710091113	-0.0015258789	
1732710091114	0.0066375732	
1732710091115	-9.918213E-4	
1732710091116	-0.011367798	
1732710091117	-0.005493164	
1732710091118	0.0022888184	
1732710091119	1.5258789E-4	
1732710091120	-0.0074768066	
1732710091121	-0.0076293945	
1732710091122	0.0010681152	
1732710091123	0.0036621094	
1732710091124	-0.0046539307	
1732710091125	-0.005569458	
1732710091126	0.0022888184	
1732710091127	0.0022125244	
1732710091128	0.0030517578	
1732710091129	0.005645752	
1732710091130	0.002670288	
1732710091131	-0.0033569336	
1732710091132	-9.1552734E-4	
1732710091133	0.0029754639	
1732710091134	-1.5258789E-4	
1732710091135	0.001449585	
1732710091136	0.0045776367	
1732710091137	0.0047302246	
1732710091138	-0.0022888184	
1732710091139	0.002670288	
1732710091140	0.00831604	
1732710091141	-0.0029754639	
1732710091142	0.0022125244	
1732710091143	0.0025177002	
1732710091144	-0.010299683	
1732710091145	-0.004425049	
1732710091146	-0.0023651123	
1732710091147	-0.0104522705	
1732710091148	-0.009231567	
1732710091149	0.002670288	
1732710091150	0.007095337	
1732710091151	0.0035858154	
1732710091152	0.0017547607	
1732710091153	6.866455E-4	
1732710091154	0.0033569336	
1732710091155	-0.001373291	
1732710091156	-0.0025177002	
1732710091157	-0.0020599365	
1732710091158	-0.0059509277	
1732710091159	-7.6293945E-4	
1732710091160	0.0035095215	
1732710091161	0.007858276	
1732710091162	0.0019073486	
1732710091163	-0.0051879883	
1732710091164	0.0038146973	
1732710091165	0.001373291	
1732710091166	0.0018310547	
1732710091167	0.0077819824	
1732710091168	6.866455E-4	
1732710091169	-0.0019073486	
1732710091170	-0.0048828125	
1732710091171	-0.00579834	
1732710091172	-9.1552734E-4	
1732710091173	-0.0022888184	
1732710091174	0.0011444092	
1732710091175	0.005722046	
1732710091176	0.0025939941	
1732710091177	0.0025939941	
1732710091178	-0.0022125244	
1732710091179	-0.006790161	
1732710091180	-0.0038909912	
1732710091181	-0.0023651123	
1732710091182	-0.001449585	
1732710091183	-0.0016784668	
1732710091184	0.0035858154	
1732710091185	0.004425049	
1732710091186	-0.005340576	
1732710091187	-0.0077819824	
1732710091188	-0.0064849854	
1732710091189	-0.0047302246	
1732710091190	0.0016784668	
1732710091191	0.0049591064	
1732710091192	0.005645752	
1732710091193	0.0051879883	
1732710091194	0.0	
1732710091195	-0.0017547607	
1732710091196	-3.0517578E-4	
1732710091197	0.0022888184	
1732710091198	0.0035095215	
1732710091199	0.001373291	
1732710091200	0.0050354004	
1732710091201	0.007171631	
1732710091202	0.0033569336	
1732710091203	0.0051879883	
1732710091204	0.00289917	
1732710091205	-0.0016784668	
1732710091206	0.0024414062	
1732710091207	-9.918213E-4	
1732710091208	-0.006790161	
1732710091209	-0.0049591064	
1732710091210	-0.008392334	
1732710091211	-0.0104522705	
1732710091212	-0.0025939941	
1732710091213	3.0517578E-4	
1732710091214	-0.0025177002	
1732710091215	-0.0016784668	
1732710091216	0.0025177002	
1732710091217	0.0023651123	
1732710091218	-0.0036621094	
1732710091219	-0.0016784668	
1732710091220	-0.0015258789	
1732710091221	0.0022888184	
1732710091222	0.0046539307	
1732710091223	-0.00289917	
1732710091224	0.0035858154	
1732710091225	0.002822876	
1732710091226	-0.002670288	
1732710091227	9.918213E-4	
1732710091228	-0.001373291	
1732710091229	0.001373291	
1732710091230	0.0020599365	
1732710091231	-0.0034332275	
1732710091232	-0.0011444092	
1732710091233	8.392334E-4	
1732710091234	6.866455E-4	
1732710091235	0.0023651123	
1732710091236	-9.918213E-4	
1732710091237	0.0012207031	
1732710091238	0.0031280518	
1732710091239	6.1035156E-4	
1732710091240	0.0048828125	
1732710091241	-0.002746582	
1732710091242	-0.002670288	
1732710091243	0.010528564	
1732710091244	0.005874634	
1732710091245	0.0022888184	
1732710091246	0.0031280518	
1732710091247	0.0019073486	
1732710091248	-0.0015258789	
1732710091249	-0.00793457	
1732710091250	-0.008010864	
1732710091251	-0.010681152	
1732710091252	-0.007019043	
1732710091253	9.918213E-4	
1732710091254	0.0025177002	
1732710091255	0.0064849854	
1732710091256	5.340576E-4	
1732710091257	-0.012588501	
1732710091258	-0.011978149	
1732710091259	-0.0090789795	
1732710091260	-0.0010681152	
1732710091261	0.0034332275	
1732710091262	-0.0012207031	
1732710091263	0.001373291	
1732710091264	0.0019836426	
1732710091265	0.0049591064	
1732710091266	0.0074005127	
1732710091267	0.0047302246	
1732710091268	0.005645752	
1732710091269	0.005569458	
1732710091270	0.0012969971	
1732710091271	0.0032806396	
1732710091272	0.0062561035	
1732710091273	3.0517578E-4	
1732710091274	0.0010681152	
1732710091275	0.005874634	
1732710091276	0.0061035156	
1732710091277	0.0020599365	
1732710091278	-0.0074005127	
1732710091279	-0.00579834	
1732710091280	-0.0011444092	
1732710091281	-0.0030517578	
1732710091282	0.0010681152	
1732710091283	0.0029754639	
1732710091284	-0.0032043457	
1732710091285	-0.007858276	
1732710091286	-0.0034332275	
1732710091287	-0.0038146973	
1732710091288	-0.0063323975	
1732710091289	1.5258789E-4	
1732710091290	-0.0012969971	
1732710091291	-0.00289917	
1732710091292	9.1552734E-4	
1732710091293	-0.0029754639	
1732710091294	-0.0051879883	
1732710091295	0.0035095215	
1732710091296	0.003967285	
1732710091297	-0.006942749	
1732710091298	-0.0032043457	
1732710091299	0.004348755	
1732710091300	0.002670288	
1732710091301	0.002822876	
1732710091302	7.6293945E-4	
1732710091303	0.00541687	
1732710091304	0.012435913	
1732710091305	0.0061035156	
1732710091306	-0.0032043457	
1732710091307	-0.0074005127	
1732710091308	-0.0017547607	
1732710091309	0.0035858154	
1732710091310	-0.0032043457	
1732710091311	-0.00541687	
1732710091312	-0.0024414062	
1732710091313	0.001449585	
1732710091314	0.0038909912	
1732710091315	1.5258789E-4	
1732710091316	-0.004119873	
1732710091317	3.0517578E-4	
1732710091318	0.005874634	
1732710091319	0.0019836426	
1732710091320	0.0	
1732710091321	-1.5258789E-4	
1732710091322	0.0011444092	
1732710091323	0.0016784668	
1732710091324	-0.005722046	
1732710091325	-0.0020599365	
1732710091326	0.0046539307	
1732710091327	-0.0015258789	
1732710091328	-0.0034332275	
1732710091329	-0.0019073486	
1732710091330	-0.0048065186	
1732710091331	-9.918213E-4	
1732710091332	0.004272461	
1732710091333	5.340576E-4	
1732710091334	-0.0037384033	
1732710091335	5.340576E-4	
1732710091336	0.0061035156	
1732710091337	-3.8146973E-4	
1732710091338	-0.001449585	
1732710091339	0.0016784668	
1732710091340	-0.0019073486	
1732710091341	0.0016784668	
1732710091342	0.0017547607	
1732710091343	-0.0015258789	
1732710091344	-0.0033569336	
1732710091345	-0.0034332275	
1732710091346	-0.0012207031	
1732710091347	-0.0038909912	
1732710091348	-0.0034332275	
1732710091349	0.0032806396	
1732710091350	0.00541687	
1732710091351	-0.001373291	
1732710091352	-0.0046539307	
1732710091353	-0.0011444092	
1732710091354	0.0035858154	
1732710091355	0.005493164	
1732710091356	-0.0016021729	
1732710091357	-0.005340576	
1732710091358	0.004425049	
1732710091359	0.0064086914	
1732710091360	0.002670288	
1732710091361	0.0025939941	
1732710091362	-2.2888184E-4	
1732710091363	0.004196167	
1732710091364	0.0038909912	
1732710091365	-0.001449585	
1732710091366	-0.0031280518	
1732710091367	-0.0016784668	
1732710091368	0.00793457	
1732710091369	0.0032043457	
1732710091370	-0.009231567	
1732710091371	-0.007247925	
1732710091372	-0.0045776367	
1732710091373	-0.0032806396	
1732710091374	-9.918213E-4	
1732710091375	-0.004119873	
1732710091376	-0.0037384033	
1732710091377	5.340576E-4	
1732710091378	0.0011444092	
1732710091379	0.002746582	
1732710091380	0.0033569336	
1732710091381	0.0033569336	
1732710091382	0.0	
1732710091383	-0.008468628	
1732710091384	-0.005493164	
1732710091385	-7.6293945E-5	
1732710091386	7.6293945E-5	
1732710091387	-0.0030517578	
1732710091388	1.5258789E-4	
1732710091389	0.009384155	
1732710091390	0.0012969971	
1732710091391	0.0011444092	
1732710091392	0.0066375732	
1732710091393	0.0010681152	
1732710091394	0.0066375732	
1732710091395	0.0012207031	
1732710091396	-0.006942749	
1732710091397	0.004119873	
1732710091398	0.0049591064	
1732710091399	-5.340576E-4	
1732710091400	-4.5776367E-4	
1732710091401	-2.2888184E-4	
1732710091402	-0.0038909912	
1732710091403	-0.00579834	
1732710091404	6.866455E-4	
1732710091405	0.001373291	
1732710091406	-0.006713867	
1732710091407	-0.00579834	
1732710091408	-7.6293945E-4	
1732710091409	-0.0029754639	
1732710091410	-0.005493164	
1732710091411	0.0019073486	
1732710091412	0.0012207031	
1732710091413	-0.005874634	
1732710091414	0.0050354004	
1732710091415	0.010604858	
1732710091416	0.004272461	
1732710091417	8.392334E-4	
1732710091418	-3.8146973E-4	
1732710091419	7.6293945E-4	
1732710091420	-0.005874634	
1732710091421	-0.002670288	
1732710091422	0.005722046	
1732710091423	0.0	
1732710091424	-0.0020599365	
1732710091425	-1.5258789E-4	
1732710091426	-0.0022125244	
1732710091427	-0.0029754639	
1732710091428	7.6293945E-5	
1732710091429	0.0025177002	
1732710091430	0.0033569336	
1732710091431	0.005645752	
1732710091432	-0.0017547607	
1732710091433	-0.005874634	
1732710091434	0.006866455	
1732710091435	0.008621216	
1732710091436	0.0036621094	
1732710091437	-0.0046539307	
1732710091438	-0.013046265	
1732710091439	-0.008239746	
1732710091440	-0.0012969971	
1732710091441	0.0074005127	
1732710091442	5.340576E-4	
1732710091443	-0.0063323975	
1732710091444	-6.866455E-4	
1732710091445	-0.0019836426	
1732710091446	0.008239746	
1732710091447	-8.392334E-4	
1732710091448	-0.010070801	
1732710091449	0.0073242188	
1732710091450	0.004119873	
1732710091451	0.0047302246	
1732710091452	0.0034332275	
1732710091453	-0.005645752	
1732710091454	-3.8146973E-4	
1732710091455	0.0016021729	
1732710091456	0.0	
1732710091457	-5.340576E-4	
1732710091458	0.0018310547	
1732710091459	0.0037384033	
1732710091460	0.004043579	
1732710091461	6.866455E-4	
1732710091462	-0.007171631	
1732710091463	-0.008010864	
1732710091464	-0.005874634	
1732710091465	0.0016021729	
1732710091466	0.005874634	
1732710091467	-0.0048065186	
1732710091468	-0.007019043	
1732710091469	0.0022125244	
1732710091470	6.1035156E-4	
1732710091471	-6.866455E-4	
1732710091472	0.0024414062	
1732710091473	-3.8146973E-4	
1732710091474	-0.001373291	
1732710091475	-0.0033569336	
1732710091476	-0.0031280518	
1732710091477	0.002746582	
1732710091478	0.0010681152	
1732710091479	-3.0517578E-4	
1732710091480	0.0031280518	
1732710091481	0.004043579	
1732710091482	0.0019073486	
1732710091483	5.340576E-4	
1732710091484	6.866455E-4	
1732710091485	0.0032043457	
1732710091486	0.0033569336	
1732710091487	-0.0010681152	
1732710091488	-1.5258789E-4	
1732710091489	0.001373291	
1732710091490	1.5258789E-4	
1732710091491	0.0036621094	
1732710091492	6.866455E-4	
1732710091493	-0.008392334	
1732710091494	-0.002670288	
1732710091495	1.5258789E-4	
1732710091496	-0.005264282	
1732710091497	-0.0015258789	
1732710091498	0.002746582	
1732710091499	0.0050354004	
1732710091500	0.005645752	
1732710091501	0.0011444092	
1732710091502	6.866455E-4	
1732710091503	-0.0012969971	
1732710091504	-0.009994507	
1732710091505	-0.006942749	
1732710091506	-0.004043579	
1732710091507	-0.007019043	
1732710091508	0.0012969971	
1732710091509	0.008239746	
1732710091510	0.0059509277	
1732710091511	-0.0015258789	
1732710091512	-0.002670288	
1732710091513	-0.0015258789	
1732710091514	-0.0049591064	
1732710091515	0.0029754639	
1732710091516	0.0065612793	
1732710091517	0.0032043457	
1732710091518	0.0048065186	
1732710091519	-0.005493164	
1732710091520	-0.009307861	
1732710091521	0.0031280518	
1732710091522	0.008468628	
1732710091523	0.0021362305	
1732710091524	-0.0030517578	
1732710091525	1.5258789E-4	
1732710091526	0.0060272217	
1732710091527	0.007858276	
1732710091528	0.0046539307	
1732710091529	5.340576E-4	
1732710091530	-0.0045776367	
1732710091531	-0.012512207	
1732710091532	-0.010223389	
1732710091533	0.0011444092	
1732710091534	0.004272461	
1732710091535	9.1552734E-4	
1732710091536	-0.0065612793	
1732710091537	-0.008926392	
1732710091538	-0.004425049	
1732710091539	-4.5776367E-4	
1732710091540	0.004119873	
1732710091541	0.004501343	
1732710091542	0.0022888184	
1732710091543	0.0016021729	
1732710091544	0.0051879883	
1732710091545	0.0074768066	
1732710091546	0.0024414062	
1732710091547	0.008392334	
1732710091548	0.0015258789	
1732710091549	-0.01586914	
1732710091550	-0.004501343	
1732710091551	-0.0023651123	
1732710091552	-0.00831604	
1732710091553	7.6293945E-5	
1732710091554	-0.0021362305	
1732710091555	-0.0038909912	
1732710091556	0.0021362305	
1732710091557	0.0037384033	
1732710091558	0.005569458	
1732710091559	0.005874634	
1732710091560	0.0022125244	
1732710091561	0.006713867	
1732710091562	0.0051879883	
1732710091563	-2.2888184E-4	
1732710091564	-3.0517578E-4	
1732710091565	-0.004348755	
1732710091566	-0.005493164	
1732710091567	-0.0018310547	
1732710091568	-0.0035858154	
1732710091569	-0.002822876	
1732710091570	6.866455E-4	
1732710091571	-0.0023651123	
1732710091572	-7.6293945E-4	
1732710091573	0.0035095215	
1732710091574	-0.0022888184	
1732710091575	-0.007095337	
1732710091576	0.001449585	
1732710091577	0.005874634	
1732710091578	0.0	
1732710091579	9.1552734E-4	
1732710091580	0.002822876	
1732710091581	0.007095337	
1732710091582	0.0017547607	
1732710091583	-0.0090789795	
1732710091584	-0.004043579	
1732710091585	0.0012207031	
1732710091586	0.007095337	
1732710091587	6.866455E-4	
1732710091588	-0.00869751	
1732710091589	-9.1552734E-4	
1732710091590	0.0038146973	
1732710091591	0.0022125244	
1732710091592	-0.0012969971	
1732710091593	0.0030517578	
1732710091594	0.0017547607	
1732710091595	-0.0065612793	
1732710091596	-0.0023651123	
1732710091597	-0.0025177002	
1732710091598	-0.0022125244	
1732710091599	-0.0024414062	
1732710091600	-0.005722046	
1732710091601	-2.2888184E-4	
1732710091602	0.0016784668	
1732710091603	0.008392334	
1732710091604	0.01159668	
1732710091605	-2.2888184E-4	
1732710091606	-0.007095337	
1732710091607	-0.0038146973	
1732710091608	0.009460449	
1732710091609	0.0090789795	
1732710091610	-0.004501343	
1732710091611	8.392334E-4	
1732710091612	9.1552734E-4	
1732710091613	-0.005493164	
1732710091614	0.0024414062	
1732710091615	-3.8146973E-4	
1732710091616	-0.0059509277	
1732710091617	0.0035858154	
1732710091618	7.6293945E-4	
1732710091619	-0.0035095215	
1732710091620	5.340576E-4	
1732710091621	-0.0062561035	
1732710091622	-0.0047302246	
1732710091623	0.001373291	
1732710091624	-0.006866455	
1732710091625	-0.00793457	
1732710091626	-6.866455E-4	
1732710091627	-9.918213E-4	
1732710091628	1.5258789E-4	
1732710091629	0.0016784668	
1732710091630	-6.1035156E-4	
1732710091631	0.005264282	
1732710091632	0.0048065186	
1732710091633	-0.004119873	
1732710091634	4.5776367E-4	
1732710091635	0.0050354004	
1732710091636	0.0035858154	
1732710091637	0.0038909912	
1732710091638	0.004119873	
1732710091639	0.0038909912	
1732710091640	0.007019043	
1732710091641	0.0059509277	
1732710091642	-0.0022125244	
1732710091643	-0.0020599365	
1732710091644	5.340576E-4	
1732710091645	-0.0059509277	
1732710091646	0.0010681152	
1732710091647	0.004425049	
1732710091648	-0.006866455	
1732710091649	-0.0032806396	
1732710091650	0.0016021729	
1732710091651	-0.0016784668	
1732710091652	-0.008163452	
1732710091653	-0.009460449	
1732710091654	-3.0517578E-4	
1732710091655	8.392334E-4	
1732710091656	-0.0011444092	
1732710091657	0.0	
1732710091658	-6.866455E-4	
1732710091659	-0.004348755	
1732710091660	-0.0021362305	
1732710091661	0.0050354004	
1732710091662	-0.001373291	
1732710091663	-0.0032806396	
1732710091664	0.004348755	
1732710091665	0.002670288	
1732710091666	0.0023651123	
1732710091667	0.0048828125	
1732710091668	7.6293945E-5	
1732710091669	-0.0029754639	
1732710091670	4.5776367E-4	
1732710091671	-8.392334E-4	
1732710091672	-0.0015258789	
1732710091673	0.005569458	
1732710091674	0.00579834	
1732710091675	0.0029754639	
1732710091676	-9.1552734E-4	
1732710091677	-0.0018310547	
1732710091678	0.0061798096	
1732710091679	0.00289917	
1732710091680	-0.0029754639	
1732710091681	-0.002822876	
1732710091682	0.0015258789	
1732710091683	0.0023651123	
1732710091684	-0.004501343	
1732710091685	0.0012969971	
1732710091686	0.0011444092	
1732710091687	-0.007095337	
1732710091688	-0.0050354004	
1732710091689	-3.0517578E-4	
1732710091690	0.0033569336	
1732710091691	-0.005264282	
1732710091692	-0.0076293945	
1732710091693	0.0020599365	
1732710091694	0.0011444092	
1732710091695	0.0018310547	
1732710091696	0.0	
1732710091697	-0.007019043	
1732710091698	5.340576E-4	
1732710091699	0.002746582	
1732710091700	-0.005493164	
1732710091701	-0.0038146973	
1732710091702	-2.2888184E-4	
1732710091703	0.004119873	
1732710091704	9.1552734E-4	
1732710091705	-0.006790161	
1732710091706	-0.0012207031	
1732710091707	0.005264282	
1732710091708	0.0074005127	
1732710091709	0.005569458	
1732710091710	3.8146973E-4	
1732710091711	0.0012969971	
1732710091712	-0.0012969971	
1732710091713	-4.5776367E-4	
1732710091714	0.0011444092	
1732710091715	-0.0060272217	
1732710091716	-6.866455E-4	
1732710091717	0.00579834	
1732710091718	0.0035095215	
1732710091719	0.00579834	
1732710091720	0.007095337	
1732710091721	0.0033569336	
1732710091722	-0.0035095215	
1732710091723	-0.011444092	
1732710091724	-0.007019043	
1732710091725	-0.001449585	
1732710091726	-9.918213E-4	
1732710091727	0.0031280518	
1732710091728	0.0025939941	
1732710091729	0.0016021729	
1732710091730	1.5258789E-4	
1732710091731	-0.0035858154	
1732710091732	0.001373291	
1732710091733	0.005722046	
1732710091734	5.340576E-4	
1732710091735	-0.0012969971	
1732710091736	-9.1552734E-4	
1732710091737	-0.0016784668	
1732710091738	0.004425049	
1732710091739	0.0012207031	
1732710091740	-0.006942749	
1732710091741	0.001373291	
1732710091742	0.0049591064	
1732710091743	-0.001373291	
1732710091744	-0.0061035156	
1732710091745	-0.010681152	
1732710091746	-0.007171631	
1732710091747	-7.6293945E-5	
1732710091748	-0.004043579	
1732710091749	-0.0034332275	
1732710091750	0.0051879883	
1732710091751	0.0066375732	
1732710091752	0.0012207031	
1732710091753	-0.0015258789	
1732710091754	0.0030517578	
1732710091755	0.0033569336	
1732710091756	6.866455E-4	
1732710091757	7.6293945E-4	
1732710091758	-0.0022125244	
1732710091759	-0.0031280518	
1732710091760	-5.340576E-4	
1732710091761	0.005569458	
1732710091762	0.006713867	
1732710091763	0.001373291	
1732710091764	0.0036621094	
1732710091765	9.918213E-4	
1732710091766	-0.002822876	
1732710091767	-3.0517578E-4	
1732710091768	-0.0065612793	
1732710091769	-0.0062561035	
1732710091770	-0.0024414062	
1732710091771	-0.007247925	
1732710091772	-0.0011444092	
1732710091773	0.0019836426	
1732710091774	3.8146973E-4	
1732710091775	0.0060272217	
1732710091776	0.0036621094	
1732710091777	-3.0517578E-4	
1732710091778	6.1035156E-4	
1732710091779	0.0019073486	
1732710091780	0.004425049	
1732710091781	0.0025177002	
1732710091782	2.2888184E-4	
1732710091783	-0.0022125244	
1732710091784	-0.0021362305	
1732710091785	0.003967285	
1732710091786	0.0062561035	
1732710091787	-4.5776367E-4	
1732710091788	-0.0073242188	
1732710091789	-0.0051116943	
1732710091790	-0.005645752	
1732710091791	-0.0019836426	
1732710091792	0.008163452	
1732710091793	0.007858276	
1732710091794	-6.866455E-4	
1732710091795	-0.001373291	
1732710091796	0.0016021729	
1732710091797	-0.0019073486	
1732710091798	-0.004119873	
1732710091799	-0.0047302246	
1732710091800	-0.0032043457	
1732710091801	0.0012969971	
1732710091802	2.2888184E-4	
1732710091803	0.0012207031	
1732710091804	0.0019073486	
1732710091805	-0.0048065186	
1732710091806	-0.0030517578	
1732710091807	-0.0019073486	
1732710091808	-0.005645752	
1732710091809	-0.00289917	
1732710091810	0.0032806396	
1732710091811	0.0047302246	
1732710091812	2.2888184E-4	
1732710091813	-0.0012969971	
1732710091814	0.0021362305	
1732710091815	0.004425049	
1732710091816	-0.0010681152	
1732710091817	7.6293945E-5	
1732710091818	8.392334E-4	
1732710091819	-0.00579834	
1732710091820	-0.0015258789	
1732710091821	5.340576E-4	
1732710091822	0.007247925	
1732710091823	0.015029907	
1732710091824	0.005645752	
1732710091825	-0.004425049	
1732710091826	-0.0025177002	
1732710091827	0.004196167	
1732710091828	-3.0517578E-4	
1732710091829	-0.007019043	
1732710091830	-0.0075531006	
1732710091831	-0.005722046	
1732710091832	0.0032806396	
1732710091833	0.0020599365	
1732710091834	-0.0016784668	
1732710091835	0.0011444092	
1732710091836	-0.004119873	
1732710091837	-0.0037384033	
1732710091838	-0.0019073486	
1732710091839	-0.0030517578	
1732710091840	-0.002670288	
1732710091841	-0.0018310547	
1732710091842	0.0030517578	
1732710091843	-4.5776367E-4	
1732710091844	-0.0038146973	
1732710091845	0.004425049	
1732710091846	0.0048828125	
1732710091847	0.009002686	
1732710091848	0.012435913	
1732710091849	3.0517578E-4	
1732710091850	-0.002746582	
1732710091851	-0.0021362305	
1732710091852	0.0015258789	
1732710091853	0.005645752	
1732710091854	-0.0032806396	
1732710091855	-0.0031280518	
1732710091856	0.0018310547	
1732710091857	-0.004043579	
1732710091858	-0.00541687	
1732710091859	-0.0023651123	
1732710091860	-0.0015258789	
1732710091861	0.0010681152	
1732710091862	-0.0010681152	
1732710091863	-0.005493164	
1732710091864	-0.002746582	
1732710091865	-0.0015258789	
1732710091866	-0.0033569336	
1732710091867	-1.5258789E-4	
1732710091868	-0.004501343	
1732710091869	-0.0061798096	
1732710091870	0.0033569336	
1732710091871	0.0029754639	
1732710091872	0.0048065186	
1732710091873	0.0077056885	
1732710091874	0.002822876	
1732710091875	0.006942749	
1732710091876	0.0034332275	
1732710091877	-0.0012969971	
1732710091878	3.8146973E-4	
1732710091879	-0.0066375732	
1732710091880	-0.0046539307	
1732710091881	-0.0020599365	
1732710091882	3.0517578E-4	
1732710091883	0.005722046	
1732710091884	3.0517578E-4	
1732710091885	-0.0038146973	
1732710091886	-0.0015258789	
1732710091887	7.6293945E-4	
1732710091888	0.0032806396	
1732710091889	0.0011444092	
1732710091890	0.0037384033	
1732710091891	0.004043579	
1732710091892	7.6293945E-4	
1732710091893	0.0018310547	
1732710091894	-0.0025177002	
1732710091895	-0.00831604	
1732710091896	-0.00541687	
1732710091897	3.0517578E-4	
1732710091898	-0.0025177002	
1732710091899	-0.0016784668	
1732710091900	-0.0012207031	
1732710091901	-0.0030517578	
1732710091902	0.0018310547	
1732710091903	9.918213E-4	
1732710091904	6.1035156E-4	
1732710091905	0.0051116943	
1732710091906	0.00289917	
1732710091907	8.392334E-4	
1732710091908	6.1035156E-4	
1732710091909	-0.0032043457	
1732710091910	-0.0074005127	
1732710091911	-0.002670288	
1732710091912	-0.0012207031	
1732710091913	-1.5258789E-4	
1732710091914	0.0062561035	
1732710091915	-6.1035156E-4	
1732710091916	4.5776367E-4	
1732710091917	0.0046539307	
1732710091918	-4.5776367E-4	
1732710091919	0.004425049	
1732710091920	0.011672974	
1732710091921	9.1552734E-4	
1732710091922	-0.004272461	
1732710091923	0.0022125244	
1732710091924	-0.0034332275	
1732710091925	-0.005874634	
1732710091926	-5.340576E-4	
1732710091927	8.392334E-4	
1732710091928	-0.004348755	
1732710091929	-0.009689331	
1732710091930	-0.00289917	
1732710091931	0.0032043457	
1732710091932	0.0060272217	
1732710091933	3.0517578E-4	
1732710091934	-0.004272461	
1732710091935	0.0020599365	
1732710091936	-0.0066375732	
1732710091937	-0.010223389	
1732710091938	0.002670288	
1732710091939	0.006713867	
1732710091940	6.1035156E-4	
1732710091941	-0.0064086914	
1732710091942	-0.001373291	
1732710091943	0.0045776367	
1732710091944	3.8146973E-4	
1732710091945	0.005340576	
1732710091946	0.011520386	
1732710091947	0.0076293945	
1732710091948	0.0020599365	
1732710091949	0.0037384033	
1732710091950	0.0011444092	
1732710091951	-0.001449585	
1732710091952	-0.0011444092	
1732710091953	-0.0045776367	
1732710091954	-0.009307861	
1732710091955	-0.015106201	
1732710091956	-0.017852783	
1732710091957	-0.005874634	
1732710091958	0.018844604	
1732710091959	0.00579834	
1732710091960	-0.0035858154	
1732710091961	0.009536743	
1732710091962	6.1035156E-4	
1732710091963	0.010757446	
1732710091964	0.0077056885	
1732710091965	-0.006790161	
1732710091966	-6.866455E-4	
1732710091967	-0.0036621094	
1732710091968	-0.002670288	
1732710091969	-8.392334E-4	
1732710091970	-7.6293945E-4	
1732710091971	0.0033569336	
1732710091972	-0.004196167	
1732710091973	-0.0032806396	
1732710091974	0.005340576	
1732710091975	-3.0517578E-4	
1732710091976	6.1035156E-4	
1732710091977	6.866455E-4	
1732710091978	0.0012969971	
1732710091979	0.0022888184	
1732710091980	-0.0073242188	
1732710091981	-0.002670288	
1732710091982	-7.6293945E-4	
1732710091983	-0.007171631	
1732710091984	-0.0019836426	
1732710091985	-0.0022888184	
1732710091986	-0.0049591064	
1732710091987	-0.0017547607	
1732710091988	6.866455E-4	
1732710091989	-0.0038146973	
1732710091990	-0.004119873	
1732710091991	0.0036621094	
1732710091992	0.0037384033	
1732710091993	0.0064086914	
1732710091994	0.0051879883	
1732710091995	0.0035858154	
1732710091996	0.0074768066	
1732710091997	0.0059509277	
1732710091998	0.0063323975	
1732710091999	0.004196167	
1732710092000	6.1035156E-4	
1732710092001	-0.0038909912	
1732710092002	-0.0060272217	
1732710092003	-0.0012969971	
1732710092004	-4.5776367E-4	
1732710092005	6.1035156E-4	
1732710092006	0.0035858154	
1732710092007	-0.0018310547	
1732710092008	-0.0015258789	
1732710092009	-0.0012207031	
1732710092010	-0.0048828125	
1732710092011	-0.0024414062	
1732710092012	-0.0035858154	
1732710092013	7.6293945E-5	
1732710092014	0.002822876	
1732710092015	-0.006866455	
1732710092016	-0.0061035156	
1732710092017	0.0034332275	
1732710092018	0.005493164	
1732710092019	0.0016784668	
1732710092020	-0.004425049	
1732710092021	9.1552734E-4	
1732710092022	0.005493164	
1732710092023	-0.0048065186	
1732710092024	-0.0059509277	
1732710092025	-0.0023651123	
1732710092026	-0.0030517578	
1732710092027	0.004272461	
1732710092028	-0.0011444092	
1732710092029	-0.008544922	
1732710092030	0.006866455	
1732710092031	0.011672974	
1732710092032	-0.0022888184	
1732710092033	-0.0015258789	
1732710092034	-1.5258789E-4	
1732710092035	-0.0046539307	
1732710092036	-0.0030517578	
1732710092037	3.0517578E-4	
1732710092038	0.002746582	
1732710092039	0.005569458	
1732710092040	0.004119873	
1732710092041	1.5258789E-4	
1732710092042	9.1552734E-4	
1732710092043	-3.8146973E-4	
1732710092044	8.392334E-4	
1732710092045	0.0016784668	
1732710092046	-0.0074768066	
1732710092047	-0.005722046	
1732710092048	0.0047302246	
1732710092049	-4.5776367E-4	
1732710092050	-0.0012969971	
1732710092051	0.0034332275	
1732710092052	-0.0021362305	
1732710092053	-0.0032806396	
1732710092054	-2.2888184E-4	
1732710092055	0.0011444092	
1732710092056	3.8146973E-4	
1732710092057	0.0036621094	
1732710092058	0.004043579	
1732710092059	-0.0038909912	
1732710092060	-0.0019836426	
1732710092061	0.0038146973	
1732710092062	0.0066375732	
1732710092063	0.0030517578	
1732710092064	-6.866455E-4	
1732710092065	0.0019073486	
1732710092066	6.866455E-4	
1732710092067	3.0517578E-4	
1732710092068	-8.392334E-4	
1732710092069	-0.007095337	
1732710092070	-0.010681152	
1732710092071	-0.009307861	
1732710092072	-0.00579834	
1732710092073	-0.0017547607	
1732710092074	-6.866455E-4	
1732710092075	-0.0012207031	
1732710092076	0.0022125244	
1732710092077	0.0029754639	
1732710092078	0.0045776367	
1732710092079	0.005722046	
1732710092080	0.0038909912	
1732710092081	0.0016021729	
1732710092082	8.392334E-4	
1732710092083	0.004272461	
1732710092084	-0.0020599365	
1732710092085	-0.0012969971	
1732710092086	0.0074005127	
1732710092087	0.005722046	
1732710092088	-5.340576E-4	
1732710092089	-0.005493164	
1732710092090	-0.0062561035	
1732710092091	-0.004196167	
1732710092092	-0.005722046	
1732710092093	-0.008010864	
1732710092094	0.0022888184	
1732710092095	0.004501343	
1732710092096	-0.004425049	
1732710092097	-0.0012969971	
1732710092098	-0.001373291	
1732710092099	1.5258789E-4	
1732710092100	0.0049591064	
1732710092101	0.0019836426	
1732710092102	0.010375977	
1732710092103	0.012130737	
1732710092104	-0.0035095215	
1732710092105	-0.0059509277	
1732710092106	-0.0035095215	
1732710092107	-9.918213E-4	
1732710092108	7.6293945E-4	
1732710092109	-0.0036621094	
1732710092110	-0.0011444092	
1732710092111	9.918213E-4	
1732710092112	0.001449585	
1732710092113	0.0020599365	
1732710092114	7.6293945E-5	
1732710092115	-0.0030517578	
1732710092116	-0.0015258789	
1732710092117	0.0012969971	
1732710092118	0.0018310547	
1732710092119	-0.0021362305	
1732710092120	-0.0066375732	
1732710092121	-0.0036621094	
1732710092122	-0.002746582	
1732710092123	7.6293945E-5	
1732710092124	-0.0029754639	
1732710092125	-0.0061035156	
1732710092126	7.6293945E-4	
1732710092127	0.0022125244	
1732710092128	0.012741089	
1732710092129	0.011444092	
1732710092130	-0.0032806396	
1732710092131	-0.0023651123	
1732710092132	0.0010681152	
1732710092133	-0.0011444092	
1732710092134	0.0011444092	
1732710092135	-0.0017547607	
1732710092136	-0.0017547607	
1732710092137	0.0036621094	
1732710092138	-0.002746582	
1732710092139	-0.0074005127	
1732710092140	-0.0012207031	
1732710092141	0.002746582	
1732710092142	0.00289917	
1732710092143	-9.918213E-4	
1732710092144	0.0038146973	
1732710092145	0.0077819824	
1732710092146	-2.2888184E-4	
1732710092147	-0.0045776367	
1732710092148	0.002822876	
1732710092149	2.2888184E-4	
1732710092150	-0.0062561035	
1732710092151	-0.0018310547	
1732710092152	0.0022888184	
1732710092153	1.5258789E-4	
1732710092154	-0.0066375732	
1732710092155	-0.005264282	
1732710092156	-4.5776367E-4	
1732710092157	0.0019836426	
1732710092158	0.0021362305	
1732710092159	0.0025177002	
1732710092160	0.0012969971	
1732710092161	0.0022125244	
1732710092162	0.0048065186	
1732710092163	-0.0024414062	
1732710092164	-0.004425049	
1732710092165	-0.002670288	
1732710092166	-0.0077056885	
1732710092167	-0.00793457	
1732710092168	-0.0048065186	
1732710092169	0.0025177002	
1732710092170	0.0051116943	
1732710092171	0.0023651123	
1732710092172	0.0077819824	
1732710092173	0.007247925	
1732710092174	0.0045776367	
1732710092175	0.00289917	
1732710092176	-0.0023651123	
1732710092177	-0.0021362305	
1732710092178	-0.0025177002	
1732710092179	-0.0015258789	
1732710092180	0.0046539307	
1732710092181	0.008392334	
1732710092182	0.00289917	
1732710092183	-0.0035095215	
1732710092184	-0.008010864	
1732710092185	-0.010681152	
1732710092186	-0.002822876	
1732710092187	-3.8146973E-4	
1732710092188	-0.0035858154	
1732710092189	-0.0038909912	
1732710092190	-6.866455E-4	
1732710092191	0.005569458	
1732710092192	0.004043579	
1732710092193	-7.6293945E-5	
1732710092194	-9.1552734E-4	
1732710092195	9.918213E-4	
1732710092196	0.0022888184	
1732710092197	-0.0064849854	
1732710092198	-0.007247925	
1732710092199	-3.0517578E-4	
1732710092200	0.004501343	
1732710092201	0.008010864	
1732710092202	0.0034332275	
1732710092203	0.0021362305	
1732710092204	0.0038146973	
1732710092205	-2.2888184E-4	
1732710092206	-0.002822876	
1732710092207	-0.0034332275	
1732710092208	8.392334E-4	
1732710092209	0.0015258789	
1732710092210	0.0019073486	
1732710092211	0.0033569336	
1732710092212	-0.0018310547	
1732710092213	-0.0025939941	
1732710092214	-1.5258789E-4	
1732710092215	-0.0017547607	
1732710092216	-0.002822876	
1732710092217	-0.0018310547	
1732710092218	-0.0034332275	
1732710092219	-5.340576E-4	
1732710092220	0.0035095215	
1732710092221	3.0517578E-4	
1732710092222	-7.6293945E-5	
1732710092223	0.0034332275	
1732710092224	0.0021362305	
1732710092225	6.1035156E-4	
1732710092226	-0.002822876	
1732710092227	-0.006713867	
1732710092228	-0.0019073486	
1732710092229	-7.6293945E-4	
1732710092230	-0.004119873	
1732710092231	-9.1552734E-4	
1732710092232	-6.866455E-4	
1732710092233	-0.0012207031	
1732710092234	-6.1035156E-4	
1732710092235	-0.0012207031	
1732710092236	0.002746582	
1732710092237	0.0048828125	
1732710092238	0.0012969971	
1732710092239	7.6293945E-4	
1732710092240	0.004119873	
1732710092241	0.0032043457	
1732710092242	6.866455E-4	
1732710092243	0.0015258789	
1732710092244	-0.002822876	
1732710092245	-0.004196167	
1732710092246	0.0045776367	
1732710092247	0.0077819824	
1732710092248	0.002822876	
1732710092249	-0.010070801	
1732710092250	-0.009231567	
1732710092251	0.0015258789	
1732710092252	0.001373291	
1732710092253	0.0022888184	
1732710092254	0.0016021729	
1732710092255	-8.392334E-4	
1732710092256	-0.0023651123	
1732710092257	-0.0019836426	
1732710092258	0.0019836426	
1732710092259	-0.0012207031	
1732710092260	-0.0034332275	
1732710092261	-0.0016784668	
1732710092262	-0.0029754639	
1732710092263	-0.0051879883	
1732710092264	-0.0020599365	
1732710092265	0.00541687	
1732710092266	0.008239746	
1732710092267	0.0046539307	
1732710092268	8.392334E-4	
1732710092269	0.0010681152	
1732710092270	-0.004501343	
1732710092271	-0.007095337	
1732710092272	7.6293945E-4	
1732710092273	0.0046539307	
1732710092274	0.006866455	
1732710092275	8.392334E-4	
1732710092276	-0.003967285	
1732710092277	-0.0012969971	
1732710092278	-7.6293945E-4	
1732710092279	-0.0015258789	
1732710092280	-0.0011444092	
1732710092281	0.0011444092	
1732710092282	-7.6293945E-5	
1732710092283	-9.918213E-4	
1732710092284	-0.0015258789	
1732710092285	-0.010910034	
1732710092286	-0.006790161	
1732710092287	0.00831604	
1732710092288	0.009002686	
1732710092289	0.0024414062	
1732710092290	-0.001373291	
1732710092291	6.866455E-4	
1732710092292	-0.0029754639	
1732710092293	-0.004425049	
1732710092294	-8.392334E-4	
1732710092295	-0.0017547607	
1732710092296	0.005645752	
1732710092297	0.010604858	
1732710092298	0.0049591064	
1732710092299	-7.6293945E-5	
1732710092300	-0.0065612793	
1732710092301	-9.918213E-4	
1732710092302	0.006713867	
1732710092303	0.0062561035	
1732710092304	0.0051116943	
1732710092305	-0.0032806396	
1732710092306	-0.0037384033	
1732710092307	-0.005569458	
1732710092308	-0.009231567	
1732710092309	-0.0051116943	
1732710092310	-0.006713867	
1732710092311	-0.00289917	
1732710092312	0.0012969971	
1732710092313	4.5776367E-4	
1732710092314	-6.866455E-4	
1732710092315	-0.0034332275	
1732710092316	-0.0025177002	
1732710092317	-0.0025939941	
1732710092318	-0.0022125244	
1732710092319	0.0035858154	
1732710092320	0.004425049	
1732710092321	0.0012207031	
1732710092322	-0.0011444092	
1732710092323	-0.002822876	
1732710092324	1.5258789E-4	
1732710092325	-0.0022125244	
1732710092326	0.002670288	
1732710092327	0.014801025	
1732710092328	0.007858276	
1732710092329	-0.004501343	
1732710092330	-0.0037384033	
1732710092331	0.0036621094	
1732710092332	0.0035858154	
1732710092333	-0.0032043457	
1732710092334	6.866455E-4	
1732710092335	0.007095337	
1732710092336	-0.001449585	
1732710092337	-0.0035858154	
1732710092338	-0.0012207031	
1732710092339	0.0018310547	
1732710092340	-6.866455E-4	
1732710092341	-0.007095337	
1732710092342	-3.0517578E-4	
1732710092343	9.1552734E-4	
1732710092344	-9.1552734E-4	
1732710092345	7.6293945E-5	
1732710092346	-0.0051116943	
1732710092347	7.6293945E-4	
1732710092348	-5.340576E-4	
1732710092349	-0.0018310547	
1732710092350	0.00869751	
1732710092351	3.8146973E-4	
1732710092352	-0.0032806396	
1732710092353	0.0035858154	
1732710092354	-0.001373291	
1732710092355	-0.002670288	
1732710092356	-0.0017547607	
1732710092357	7.6293945E-5	
1732710092358	0.0020599365	
1732710092359	-0.00289917	
1732710092360	-0.0017547607	
1732710092361	-0.0010681152	
1732710092362	-0.0017547607	
1732710092363	-0.0030517578	
1732710092364	-0.005340576	
1732710092365	-4.5776367E-4	
1732710092366	-0.0020599365	
1732710092367	-0.001449585	
1732710092368	0.001373291	
1732710092369	-0.0012207031	
1732710092370	0.0030517578	
1732710092371	0.010986328	
1732710092372	0.00541687	
1732710092373	-0.0034332275	
1732710092374	0.0015258789	
1732710092375	6.1035156E-4	
1732710092376	0.001373291	
1732710092377	-3.8146973E-4	
1732710092378	-0.005264282	
1732710092379	0.006713867	
1732710092380	0.009765625	
1732710092381	-6.1035156E-4	
1732710092382	-0.0037384033	
1732710092383	-9.918213E-4	
1732710092384	-0.002822876	
1732710092385	-0.008239746	
1732710092386	-0.007095337	
1732710092387	-0.005264282	
1732710092388	-0.0029754639	
1732710092389	0.0047302246	
1732710092390	0.005340576	
1732710092391	0.0046539307	
1732710092392	0.0017547607	
1732710092393	3.8146973E-4	
1732710092394	0.0029754639	
1732710092395	0.0016021729	
1732710092396	0.0019073486	
1732710092397	-0.0031280518	
1732710092398	-0.00289917	
1732710092399	5.340576E-4	
1732710092400	-0.0018310547	
1732710092401	-0.0045776367	
1732710092402	-0.006713867	
1732710092403	-0.0017547607	
1732710092404	0.0	
1732710092405	-0.0016784668	
1732710092406	-6.866455E-4	
1732710092407	-7.6293945E-4	
1732710092408	0.002822876	
1732710092409	0.0021362305	
1732710092410	-1.5258789E-4	
1732710092411	0.004501343	
1732710092412	0.006866455	
1732710092413	0.0022888184	
1732710092414	8.392334E-4	
1732710092415	-0.0016021729	
1732710092416	-0.007095337	
1732710092417	-0.004272461	
1732710092418	-0.0015258789	
1732710092419	-0.004348755	
1732710092420	-0.0022125244	
1732710092421	0.0049591064	
1732710092422	0.008239746	
1732710092423	0.0076293945	
1732710092424	0.0033569336	
1732710092425	-0.004348755	
1732710092426	0.0010681152	
1732710092427	0.004272461	
1732710092428	7.6293945E-4	
1732710092429	-0.004348755	
1732710092430	-0.00579834	
1732710092431	0.0016784668	
1732710092432	0.0012207031	
1732710092433	0.0	
1732710092434	-0.0022125244	
1732710092435	-0.008087158	
1732710092436	-0.00289917	
1732710092437	0.0061035156	
1732710092438	0.003967285	
1732710092439	-0.0046539307	
1732710092440	6.866455E-4	
1732710092441	0.0034332275	
1732710092442	-0.002670288	
1732710092443	-0.0019073486	
1732710092444	-0.0022125244	
1732710092445	-4.5776367E-4	
1732710092446	-0.0016021729	
1732710092447	-0.0022125244	
1732710092448	-1.5258789E-4	
1732710092449	0.0	
1732710092450	3.0517578E-4	
1732710092451	-0.0048065186	
1732710092452	-0.0064086914	
1732710092453	-0.00289917	
1732710092454	-0.0022125244	
1732710092455	0.0021362305	
1732710092456	0.007171631	
1732710092457	0.008239746	
1732710092458	0.0031280518	
1732710092459	-0.0035858154	
1732710092460	-0.0050354004	
1732710092461	0.0019073486	
1732710092462	0.010223389	
1732710092463	0.005874634	
1732710092464	9.1552734E-4	
1732710092465	-3.0517578E-4	
1732710092466	-4.5776367E-4	
1732710092467	6.1035156E-4	
1732710092468	0.0021362305	
1732710092469	0.0019073486	
1732710092470	-1.5258789E-4	
1732710092471	-6.1035156E-4	
1732710092472	2.2888184E-4	
1732710092473	-1.5258789E-4	
1732710092474	-0.0035858154	
1732710092475	-0.0021362305	
1732710092476	-0.0016021729	
1732710092477	-0.008087158	
1732710092478	-0.009918213	
1732710092479	-0.0048065186	
1732710092480	0.0016021729	
1732710092481	3.8146973E-4	
1732710092482	-2.2888184E-4	
1732710092483	0.0025939941	
1732710092484	-0.004501343	
1732710092485	-0.002746582	
1732710092486	9.918213E-4	
1732710092487	-0.00289917	
1732710092488	0.0017547607	
1732710092489	0.0024414062	
1732710092490	0.0016784668	
1732710092491	0.0035095215	
1732710092492	0.0022888184	
1732710092493	0.0021362305	
1732710092494	0.0025939941	
1732710092495	-2.2888184E-4	
1732710092496	-0.001449585	
1732710092497	0.002746582	
1732710092498	0.0038146973	
1732710092499	0.008773804	
1732710092500	0.00831604	
1732710092501	-0.004119873	
1732710092502	-0.004043579	
1732710092503	-0.0018310547	
1732710092504	-0.0048065186	
1732710092505	0.0038909912	
1732710092506	0.0049591064	
1732710092507	-4.5776367E-4	
1732710092508	0.0029754639	
1732710092509	0.0059509277	
1732710092510	-0.002746582	
1732710092511	-0.0076293945	
1732710092512	-9.918213E-4	
1732710092513	-0.0012969971	
1732710092514	-0.0059509277	
1732710092515	-0.005340576	
1732710092516	-0.006790161	
1732710092517	-0.0063323975	
1732710092518	-0.009918213	
1732710092519	-0.011138916	
1732710092520	-0.002670288	
1732710092521	-0.0019836426	
1732710092522	-2.2888184E-4	
1732710092523	0.009613037	
1732710092524	0.007019043	
1732710092525	0.0038909912	
1732710092526	0.00579834	
1732710092527	-0.0015258789	
1732710092528	-0.0012207031	
1732710092529	0.006866455	
1732710092530	0.0061798096	
1732710092531	0.0022888184	
1732710092532	0.004501343	
1732710092533	0.006866455	
1732710092534	0.0017547607	
1732710092535	6.866455E-4	
1732710092536	0.0011444092	
1732710092537	-0.0064086914	
1732710092538	-0.0074005127	
1732710092539	-0.0031280518	
1732710092540	-0.0018310547	
1732710092541	-3.8146973E-4	
1732710092542	0.0011444092	
1732710092543	0.0074005127	
1732710092544	0.0035858154	
1732710092545	3.8146973E-4	
1732710092546	0.0030517578	
1732710092547	-0.0038146973	
1732710092548	-0.0033569336	
1732710092549	-0.0025939941	
1732710092550	-0.0050354004	
1732710092551	-9.1552734E-4	
1732710092552	-0.0019836426	
1732710092553	-0.0065612793	
1732710092554	-0.004348755	
1732710092555	0.0035858154	
1732710092556	0.0065612793	
1732710092557	0.004501343	
1732710092558	0.002746582	
1732710092559	0.0016021729	
1732710092560	0.00831604	
1732710092561	0.007171631	
1732710092562	-0.0048065186	
1732710092563	-0.010070801	
1732710092564	-0.009231567	
1732710092565	-0.0049591064	
1732710092566	-0.0064086914	
1732710092567	-0.012359619	
1732710092568	-0.010910034	
1732710092569	-0.007095337	
1732710092570	-0.003967285	
1732710092571	0.0012207031	
1732710092572	0.0064849854	
1732710092573	0.0062561035	
1732710092574	0.0048065186	
1732710092575	0.007858276	
1732710092576	0.0075531006	
1732710092577	0.00541687	
1732710092578	0.008010864	
1732710092579	0.007171631	
1732710092580	0.0034332275	
1732710092581	0.001373291	
1732710092582	0.004043579	
1732710092583	0.0076293945	
1732710092584	4.5776367E-4	
1732710092585	-0.00541687	
1732710092586	0.0012969971	
1732710092587	-7.6293945E-4	
1732710092588	-0.009536743	
1732710092589	-0.0051116943	
1732710092590	-0.0030517578	
1732710092591	-0.0065612793	
1732710092592	2.2888184E-4	
1732710092593	0.005645752	
1732710092594	0.0063323975	
1732710092595	0.0025177002	
1732710092596	-1.5258789E-4	
1732710092597	-0.0020599365	
1732710092598	-3.0517578E-4	
1732710092599	-4.5776367E-4	
1732710092600	-0.00869751	
1732710092601	-0.0034332275	
1732710092602	-0.0011444092	
1732710092603	-0.011138916	
1732710092604	-0.0064086914	
1732710092605	0.0034332275	
1732710092606	-0.0038146973	
1732710092607	-0.00831604	
1732710092608	0.004119873	
1732710092609	0.007095337	
1732710092610	0.0050354004	
1732710092611	0.0024414062	
1732710092612	-0.0031280518	
1732710092613	-0.0021362305	
1732710092614	0.0015258789	
1732710092615	0.005340576	
1732710092616	-0.0034332275	
1732710092617	-0.0015258789	
1732710092618	0.004425049	
1732710092619	-0.0073242188	
1732710092620	0.0033569336	
1732710092621	0.011749268	
1732710092622	0.0020599365	
1732710092623	0.0020599365	
1732710092624	3.0517578E-4	
1732710092625	-0.0016021729	
1732710092626	-0.0038909912	
1732710092627	0.0019836426	
1732710092628	0.008010864	
1732710092629	6.1035156E-4	
1732710092630	0.0011444092	
1732710092631	-4.5776367E-4	
1732710092632	-0.0048828125	
1732710092633	-5.340576E-4	
1732710092634	-0.00793457	
1732710092635	-0.014343262	
1732710092636	-0.0061035156	
1732710092637	-0.004425049	
1732710092638	0.0077056885	
1732710092639	0.0011444092	
1732710092640	-0.06904602	
1732710092641	-0.0844574	
1732710092642	-0.01449585	
1732710092643	-0.020751953	
1732710092644	-0.0743103	
1732710092645	-0.05470276	
1732710092646	-0.01083374	
1732710092647	0.04058838	
1732710092648	0.12519836	
1732710092649	0.20957947	
1732710092650	0.26245117	
1732710092651	0.25245667	
1732710092652	0.18630981	
1732710092653	0.10284424	
1732710092654	-0.005722046	
1732710092655	-0.06904602	
1732710092656	-0.086364746	
1732710092657	-0.16067505	
1732710092658	-0.17608643	
1732710092659	-0.17211914	
1732710092660	-0.23971558	
1732710092661	-0.25802612	
1732710092662	-0.21942139	
1732710092663	-0.15594482	
1732710092664	-0.06523132	
1732710092665	0.009384155	
1732710092666	0.03578186	
1732710092667	0.055160522	
1732710092668	0.12237549	
1732710092669	0.22140503	
1732710092670	0.2280426	
1732710092671	0.0982666	
1732710092672	0.028381348	
1732710092673	0.0491333	
1732710092674	0.028915405	
1732710092675	0.024719238	
1732710092676	0.024108887	
1732710092677	0.004501343	
1732710092678	0.009155273	
1732710092679	-0.0016021729	
1732710092680	-0.010147095	
1732710092681	-0.0076293945	
1732710092682	-0.013046265	
1732710092683	-0.015411377	
1732710092684	-0.01838684	
1732710092685	-0.014801025	
1732710092686	-0.009002686	
1732710092687	-0.011978149	
1732710092688	-0.016326904	
1732710092689	-0.016403198	
1732710092690	-0.008163452	
1732710092691	-0.007858276	
1732710092692	-0.00831604	
1732710092693	-0.0045776367	
1732710092694	-0.0061035156	
1732710092695	-0.0015258789	
1732710092696	-0.0018310547	
1732710092697	-0.0019836426	
1732710092698	6.1035156E-4	
1732710092699	-0.0046539307	
1732710092700	-6.1035156E-4	
1732710092701	-0.0020599365	
1732710092702	-0.005874634	
1732710092703	-0.0034332275	
1732710092704	-0.004196167	
1732710092705	0.014724731	
1732710092706	0.015716553	
1732710092707	-0.0025177002	
1732710092708	0.0019073486	
1732710092709	-0.0048828125	
1732710092710	-0.013580322	
1732710092711	-0.01663208	
1732710092712	-0.027770996	
1732710092713	-0.015640259	
1732710092714	-0.0074005127	
1732710092715	-0.0049591064	
1732710092716	0.009155273	
1732710092717	0.0019073486	
1732710092718	-0.006866455	
1732710092719	0.0020599365	
1732710092720	0.013122559	
1732710092721	0.017547607	
1732710092722	0.020065308	
1732710092723	0.018005371	
1732710092724	0.014724731	
1732710092725	0.016098022	
1732710092726	0.012130737	
1732710092727	0.0066375732	
1732710092728	0.0090789795	
1732710092729	0.009765625	
1732710092730	0.005340576	
1732710092731	0.0010681152	
1732710092732	4.5776367E-4	
1732710092733	-0.0035858154	
1732710092734	-0.010986328	
1732710092735	-0.01159668	
1732710092736	-0.010604858	
1732710092737	-0.0066375732	
1732710092738	-0.0046539307	
1732710092739	-0.011138916	
1732710092740	-0.010299683	
1732710092741	-0.0060272217	
1732710092742	-0.009536743	
1732710092743	-0.010986328	
1732710092744	-0.007858276	
1732710092745	-0.0048065186	
1732710092746	-0.0048065186	
1732710092747	-0.0038909912	
1732710092748	-0.011672974	
1732710092749	-0.015640259	
1732710092750	-0.001449585	
1732710092751	0.010986328	
1732710092752	0.016326904	
1732710092753	0.022201538	
1732710092754	0.020599365	
1732710092755	0.016403198	
1732710092756	0.017547607	
1732710092757	0.012588501	
1732710092758	0.004196167	
1732710092759	-0.009384155	
1732710092760	-0.013656616	
1732710092761	-0.0060272217	
1732710092762	-0.0064086914	
1732710092763	-0.005264282	
1732710092764	-0.001449585	
1732710092765	-0.00869751	
1732710092766	-0.018234253	
1732710092767	-0.030975342	
1732710092768	-0.02571106	
1732710092769	0.0033569336	
1732710092770	0.010986328	
1732710092771	-0.012435913	
1732710092772	-0.046081543	
1732710092773	-0.037384033	
1732710092774	0.008087158	
1732710092775	0.038146973	
1732710092776	0.092163086	
1732710092777	0.12863159	
1732710092778	0.056381226	
1732710092779	-0.012741089	
1732710092780	-0.012054443	
1732710092781	-0.03730774	
1732710092782	-0.052642822	
1732710092783	0.010223389	
1732710092784	0.004425049	
1732710092785	-0.053634644	
1732710092786	0.0118255615	
1732710092787	0.03929138	
1732710092788	0.0119018555	
1732710092789	0.032348633	
1732710092790	0.028305054	
1732710092791	0.05027771	
1732710092792	0.07522583	
1732710092793	0.020370483	
1732710092794	-0.06729126	
1732710092795	-0.08338928	
1732710092796	-0.07331848	
1732710092797	-0.10498047	
1732710092798	-0.11657715	
1732710092799	-0.09437561	
1732710092800	-0.056762695	
1732710092801	-0.033950806	
1732710092802	-0.010986328	
1732710092803	0.029907227	
1732710092804	0.06736755	
1732710092805	0.08682251	
1732710092806	0.061035156	
1732710092807	0.024490356	
1732710092808	0.00793457	
1732710092809	0.0022125244	
1732710092810	0.0030517578	
1732710092811	0.008468628	
1732710092812	0.019607544	
1732710092813	0.022277832	
1732710092814	0.02243042	
1732710092815	0.023345947	
1732710092816	0.013427734	
1732710092817	0.017089844	
1732710092818	0.027160645	
1732710092819	0.02456665	
1732710092820	0.0132751465	
1732710092821	0.0060272217	
1732710092822	0.0060272217	
1732710092823	9.1552734E-4	
1732710092824	-0.005722046	
1732710092825	-0.0025177002	
1732710092826	0.0038909912	
1732710092827	-0.005493164	
1732710092828	-0.021896362	
1732710092829	-0.02166748	
1732710092830	-0.020370483	
1732710092831	-0.02067566	
1732710092832	-0.009384155	
1732710092833	-0.007095337	
1732710092834	-0.010375977	
1732710092835	-0.012893677	
1732710092836	-0.023422241	
1732710092837	-0.019226074	
1732710092838	-0.016098022	
1732710092839	-0.008544922	
1732710092840	0.0025177002	
1732710092841	-0.0064849854	
1732710092842	-0.0025939941	
1732710092843	0.001373291	
1732710092844	-0.0011444092	
1732710092845	0.0045776367	
1732710092846	0.005340576	
1732710092847	0.009918213	
1732710092848	0.012359619	
1732710092849	0.010299683	
1732710092850	0.004425049	
1732710092851	-0.002822876	
1732710092852	0.006713867	
1732710092853	0.012512207	
1732710092854	0.0061798096	
1732710092855	0.0024414062	
1732710092856	-0.0012969971	
1732710092857	0.008163452	
1732710092858	0.0132751465	
1732710092859	0.0038146973	
1732710092860	0.0010681152	
1732710092861	-0.005874634	
1732710092862	-0.0031280518	
1732710092863	0.0062561035	
1732710092864	-0.0024414062	
1732710092865	-0.007095337	
1732710092866	-3.0517578E-4	
1732710092867	8.392334E-4	
1732710092868	9.1552734E-4	
1732710092869	0.0032043457	
1732710092870	0.005874634	
1732710092871	-0.0015258789	
1732710092872	-0.009918213	
1732710092873	7.6293945E-5	
1732710092874	0.001373291	
1732710092875	-0.0077819824	
1732710092876	-0.004425049	
1732710092877	-0.007171631	
1732710092878	-0.007247925	
1732710092879	-0.0061798096	
1732710092880	-0.009613037	
1732710092881	-0.0032806396	
1732710092882	-2.2888184E-4	
1732710092883	0.002746582	
1732710092884	0.005569458	
1732710092885	0.0033569336	
1732710092886	0.0021362305	
1732710092887	-0.0021362305	
1732710092888	-0.004196167	
1732710092889	-0.0034332275	
1732710092890	0.0048065186	
1732710092891	0.009155273	
1732710092892	0.0034332275	
1732710092893	-0.0031280518	
1732710092894	-0.0012207031	
1732710092895	0.009231567	
1732710092896	0.006790161	
1732710092897	0.0037384033	
1732710092898	0.008544922	
1732710092899	0.0036621094	
1732710092900	0.0012207031	
1732710092901	-0.0034332275	
1732710092902	-0.008239746	
1732710092903	-0.0018310547	
1732710092904	-0.0021362305	
1732710092905	-0.0029754639	
1732710092906	-0.0037384033	
1732710092907	-0.0073242188	
1732710092908	-9.918213E-4	
1732710092909	-6.1035156E-4	
1732710092910	-0.0033569336	
1732710092911	0.0011444092	
1732710092912	0.0038146973	
1732710092913	0.0046539307	
1732710092914	0.0012969971	
1732710092915	-6.866455E-4	
1732710092916	-0.005493164	
1732710092917	-0.004348755	
1732710092918	0.010299683	
1732710092919	0.0035858154	
1732710092920	-0.009918213	
1732710092921	-0.0021362305	
1732710092922	0.0045776367	
1732710092923	7.6293945E-4	
1732710092924	-0.0021362305	
1732710092925	-0.0016021729	
1732710092926	-0.005569458	
1732710092927	-0.011444092	
1732710092928	-0.0074768066	
1732710092929	0.0051116943	
1732710092930	0.014572144	
1732710092931	0.011062622	
1732710092932	9.918213E-4	
1732710092933	0.0019073486	
1732710092934	0.007095337	
1732710092935	-0.0032043457	
1732710092936	-0.005569458	
1732710092937	0.004501343	
1732710092938	0.0018310547	
1732710092939	0.0	
1732710092940	-0.0038146973	
1732710092941	-0.006790161	
1732710092942	0.0032806396	
1732710092943	0.0051116943	
1732710092944	-0.0019073486	
1732710092945	-0.0022888184	
1732710092946	-0.0022125244	
1732710092947	-0.0061035156	
1732710092948	-0.007019043	
1732710092949	-0.002822876	
1732710092950	0.0015258789	
1732710092951	0.004043579	
1732710092952	6.866455E-4	
1732710092953	-0.004043579	
1732710092954	-3.8146973E-4	
1732710092955	3.8146973E-4	
1732710092956	-0.002670288	
1732710092957	0.0012207031	
1732710092958	0.004501343	
1732710092959	0.0064849854	
1732710092960	0.004196167	
1732710092961	0.0059509277	
1732710092962	0.008468628	
1732710092963	0.0019073486	
1732710092964	-0.0023651123	
1732710092965	-0.006790161	
1732710092966	-0.0050354004	
1732710092967	-0.0020599365	
1732710092968	-0.005722046	
1732710092969	-8.392334E-4	
1732710092970	4.5776367E-4	
1732710092971	-0.0038146973	
1732710092972	-0.0038909912	
1732710092973	-0.0036621094	
1732710092974	3.0517578E-4	
1732710092975	0.0023651123	
1732710092976	-0.0046539307	
1732710092977	-0.002822876	
1732710092978	0.0032806396	
1732710092979	0.0017547607	
1732710092980	0.004119873	
1732710092981	0.005569458	
1732710092982	0.011520386	
1732710092983	0.01159668	
1732710092984	-0.0032806396	
1732710092985	-0.004196167	
1732710092986	-0.0025939941	
1732710092987	-0.007858276	
1732710092988	-0.009918213	
1732710092989	-0.0051879883	
1732710092990	-4.5776367E-4	
1732710092991	-0.0011444092	
1732710092992	-0.0029754639	
1732710092993	-0.0037384033	
1732710092994	0.001449585	
1732710092995	0.0024414062	
1732710092996	0.00289917	
1732710092997	0.0066375732	
1732710092998	0.008544922	
1732710092999	0.010070801	
1732710093000	-0.005645752	
1732710093001	-0.013504028	
1732710093002	-0.0021362305	
1732710093003	-9.918213E-4	
1732710093004	-0.001449585	
1732710093005	-0.0017547607	
1732710093006	-0.0031280518	
1732710093007	-0.0010681152	
1732710093008	0.0035095215	
1732710093009	0.009231567	
1732710093010	0.0077056885	
1732710093011	0.0035858154	
1732710093012	-0.003967285	
1732710093013	-0.0023651123	
1732710093014	0.005874634	
1732710093015	0.0019836426	
1732710093016	-0.0015258789	
1732710093017	-0.0010681152	
1732710093018	0.0062561035	
1732710093019	0.011672974	
1732710093020	0.0016021729	
1732710093021	-0.0077819824	
1732710093022	-0.008773804	
1732710093023	-0.0074005127	
1732710093024	-0.0029754639	
1732710093025	-0.0033569336	
1732710093026	-0.011367798	
1732710093027	-0.015411377	
1732710093028	-0.01083374	
1732710093029	-0.0016021729	
1732710093030	1.5258789E-4	
1732710093031	0.0022888184	
1732710093032	0.006942749	
1732710093033	0.010986328	
1732710093034	0.0075531006	
1732710093035	-0.0022888184	
1732710093036	0.005569458	
1732710093037	0.0064849854	
1732710093038	-9.918213E-4	
1732710093039	0.00541687	
1732710093040	0.008087158	
1732710093041	0.005264282	
1732710093042	0.0036621094	
1732710093043	-0.0032043457	
1732710093044	-0.0020599365	
1732710093045	-0.0030517578	
1732710093046	-0.014038086	
1732710093047	-0.01373291	
1732710093048	-0.006790161	
1732710093049	-8.392334E-4	
1732710093050	0.007095337	
1732710093051	0.012359619	
1732710093052	0.010681152	
1732710093053	0.009384155	
1732710093054	0.008926392	
1732710093055	0.008544922	
1732710093056	-0.002670288	
1732710093057	-0.01586914	
1732710093058	-0.008163452	
1732710093059	-5.340576E-4	
1732710093060	-0.005722046	
1732710093061	-0.009002686	
1732710093062	-0.00541687	
1732710093063	-0.0031280518	
1732710093064	-0.006790161	
1732710093065	9.1552734E-4	
1732710093066	0.010910034	
1732710093067	0.0037384033	
1732710093068	-0.007019043	
1732710093069	-0.005264282	
1732710093070	0.0048065186	
1732710093071	0.0048828125	
1732710093072	-0.0061035156	
1732710093073	-0.006713867	
1732710093074	-3.8146973E-4	
1732710093075	-0.0051879883	
1732710093076	-0.0038909912	
1732710093077	0.0051116943	
1732710093078	0.0047302246	
1732710093079	0.0059509277	
1732710093080	0.0064849854	
1732710093081	6.1035156E-4	
1732710093082	0.0017547607	
1732710093083	0.0077819824	
1732710093084	0.007171631	
1732710093085	0.005874634	
1732710093086	0.0031280518	
1732710093087	-0.0048828125	
1732710093088	-3.0517578E-4	
1732710093089	0.0036621094	
1732710093090	3.8146973E-4	
1732710093091	-0.001373291	
1732710093092	-0.006790161	
1732710093093	-0.009536743	
1732710093094	-0.001449585	
1732710093095	0.0062561035	
1732710093096	1.5258789E-4	
1732710093097	-0.0036621094	
1732710093098	0.001373291	
1732710093099	-0.0045776367	
1732710093100	-0.0047302246	
1732710093101	-0.0024414062	
1732710093102	-0.008544922	
1732710093103	-0.0016784668	
1732710093104	0.007171631	
1732710093105	0.0061035156	
1732710093106	0.00831604	
1732710093107	0.008087158	
1732710093108	0.0037384033	
1732710093109	-0.005569458	
1732710093110	-0.014724731	
1732710093111	-0.0061798096	
1732710093112	8.392334E-4	
1732710093113	-0.007171631	
1732710093114	-0.010299683	
1732710093115	-0.0051116943	
1732710093116	-8.392334E-4	
1732710093117	-0.0025177002	
1732710093118	0.0	
1732710093119	0.005874634	
1732710093120	0.005493164	
1732710093121	0.0062561035	
1732710093122	0.005645752	
1732710093123	0.0012207031	
1732710093124	-9.1552734E-4	
1732710093125	-7.6293945E-5	
1732710093126	-0.0021362305	
1732710093127	-9.1552734E-4	
1732710093128	0.0021362305	
1732710093129	0.0016021729	
1732710093130	0.0064086914	
1732710093131	0.0029754639	
1732710093132	-0.0031280518	
1732710093133	-0.002670288	
1732710093134	-0.0031280518	
1732710093135	-9.1552734E-4	
1732710093136	0.008010864	
1732710093137	0.0063323975	
1732710093138	0.0029754639	
1732710093139	0.007171631	
1732710093140	0.0017547607	
1732710093141	-6.1035156E-4	
1732710093142	0.0019073486	
1732710093143	-0.0037384033	
1732710093144	0.0010681152	
1732710093145	0.0063323975	
1732710093146	0.001449585	
1732710093147	0.0022888184	
1732710093148	-0.0024414062	
1732710093149	-0.010375977	
1732710093150	-0.0048828125	
1732710093151	-0.0019836426	
1732710093152	0.001373291	
1732710093153	-9.1552734E-4	
1732710093154	-0.0077056885	
1732710093155	-0.0045776367	
1732710093156	-0.009155273	
1732710093157	-0.009613037	
1732710093158	-0.0019073486	
1732710093159	-4.5776367E-4	
1732710093160	9.918213E-4	
1732710093161	-5.340576E-4	
1732710093162	-0.0038146973	
1732710093163	-0.0016784668	
1732710093164	-4.5776367E-4	
1732710093165	-0.0077056885	
1732710093166	-0.0061035156	
1732710093167	-0.0015258789	
1732710093168	-1.5258789E-4	
1732710093169	0.009460449	
1732710093170	0.01159668	
1732710093171	0.009460449	
1732710093172	0.0064086914	
1732710093173	6.1035156E-4	
1732710093174	0.00541687	
1732710093175	0.0061798096	
1732710093176	0.0017547607	
1732710093177	0.0018310547	
1732710093178	-0.002822876	
1732710093179	0.0021362305	
1732710093180	0.007019043	
1732710093181	-0.0037384033	
1732710093182	-0.0011444092	
1732710093183	0.0062561035	
1732710093184	0.0063323975	
1732710093185	6.1035156E-4	
1732710093186	-0.0050354004	
1732710093187	0.0024414062	
1732710093188	4.5776367E-4	
1732710093189	-0.009460449	
1732710093190	-0.013427734	
1732710093191	-0.010604858	
1732710093192	-0.0031280518	
1732710093193	-0.008773804	
1732710093194	-0.008468628	
1732710093195	-5.340576E-4	
1732710093196	-8.392334E-4	
1732710093197	0.0037384033	
1732710093198	0.0033569336	
1732710093199	0.00541687	
1732710093200	0.010910034	
1732710093201	0.0020599365	
1732710093202	-0.0021362305	
1732710093203	0.0050354004	
1732710093204	1.5258789E-4	
1732710093205	-0.00831604	
1732710093206	-0.0035095215	
1732710093207	-0.0038146973	
1732710093208	-0.0046539307	
1732710093209	0.0035095215	
1732710093210	0.0060272217	
1732710093211	0.0036621094	
1732710093212	0.0024414062	
1732710093213	0.001373291	
1732710093214	-0.0029754639	
1732710093215	-0.009002686	
1732710093216	-0.0077819824	
1732710093217	-0.001449585	
1732710093218	0.0015258789	
1732710093219	0.0035858154	
1732710093220	0.006866455	
1732710093221	0.009231567	
1732710093222	0.010147095	
1732710093223	0.0063323975	
1732710093224	-0.0031280518	
1732710093225	-0.0076293945	
1732710093226	-0.013961792	
1732710093227	-0.018081665	
1732710093228	-0.007019043	
1732710093229	3.8146973E-4	
1732710093230	-0.005340576	
1732710093231	-0.014572144	
1732710093232	-0.008087158	
1732710093233	-0.0025177002	
1732710093234	0.0011444092	
1732710093235	0.006713867	
1732710093236	0.0022888184	
1732710093237	0.0051879883	
1732710093238	0.0051116943	
1732710093239	0.002746582	
1732710093240	0.010604858	
1732710093241	0.0038909912	
1732710093242	0.009231567	
1732710093243	0.026626587	
1732710093244	0.02532959	
1732710093245	0.022735596	
1732710093246	0.019760132	
1732710093247	0.017242432	
1732710093248	0.020141602	
1732710093249	0.021972656	
1732710093250	0.01663208	
1732710093251	-0.00289917	
1732710093252	-0.018234253	
1732710093253	-0.022506714	
1732710093254	-0.025787354	
1732710093255	-0.012130737	
1732710093256	-0.007019043	
1732710093257	-0.01411438	
1732710093258	-0.013580322	
1732710093259	-0.0118255615	
1732710093260	-0.0024414062	
1732710093261	-0.053482056	
1732710093262	-0.12145996	
1732710093263	-0.06881714	
1732710093264	0.00869751	
1732710093265	0.05607605	
1732710093266	0.10215759	
1732710093267	0.06530762	
1732710093268	0.006790161	
1732710093269	-0.033340454	
1732710093270	-0.073013306	
1732710093271	-0.012817383	
1732710093272	0.019607544	
1732710093273	-0.012435913	
1732710093274	0.05531311	
1732710093275	0.10192871	
1732710093276	0.10284424	
1732710093277	0.07888794	
1732710093278	-0.023727417	
1732710093279	-0.078125	
1732710093280	-0.091781616	
1732710093281	-0.06729126	
1732710093282	-0.03593445	
1732710093283	-0.057678223	
1732710093284	-0.04966736	
1732710093285	-0.07041931	
1732710093286	-0.08293152	
1732710093287	-0.048675537	
1732710093288	-0.07987976	
1732710093289	-0.12557983	
1732710093290	-0.100860596	
1732710093291	-0.027694702	
1732710093292	0.08117676	
1732710093293	0.18508911	
1732710093294	0.22697449	
1732710093295	0.25726318	
1732710093296	0.27313232	
1732710093297	0.1764679	
1732710093298	0.04600525	
1732710093299	-0.032043457	
1732710093300	0.017089844	
1732710093301	0.09567261	
1732710093302	0.0012207031	
1732710093303	-0.025024414	
1732710093304	0.042037964	
1732710093305	0.0022888184	
1732710093306	-0.05645752	
1732710093307	-0.10803223	
1732710093308	-0.12245178	
1732710093309	-0.096206665	
1732710093310	-0.06072998	
1732710093311	-0.02708435	
1732710093312	-0.12924194	
1732710093313	-0.30921936	
1732710093314	-0.395813	
1732710093315	-0.34088135	
1732710093316	-0.14701843	
1732710093317	0.05432129	
1732710093318	0.19165039	
1732710093319	0.27954102	
1732710093320	0.31715393	
1732710093321	0.28320312	
1732710093322	0.19836426	
1732710093323	0.07675171	
1732710093324	-0.07926941	
1732710093325	-0.098342896	
1732710093326	-0.044021606	
1732710093327	-0.0074768066	
1732710093328	0.100860596	
1732710093329	0.124816895	
1732710093330	0.00541687	
1732710093331	-0.109939575	
1732710093332	-0.12641907	
1732710093333	-0.10231018	
1732710093334	-0.09048462	
1732710093335	-0.05279541	
1732710093336	-0.020370483	
1732710093337	-5.340576E-4	
1732710093338	0.015640259	
1732710093339	0.01953125	
1732710093340	0.034332275	
1732710093341	0.042114258	
1732710093342	0.03326416	
1732710093343	0.034103394	
1732710093344	0.033416748	
1732710093345	0.033798218	
1732710093346	0.036239624	
1732710093347	0.032196045	
1732710093348	0.035095215	
1732710093349	0.034484863	
1732710093350	0.03555298	
1732710093351	0.040359497	
1732710093352	0.030517578	
1732710093353	0.00579834	
1732710093354	-0.02067566	
1732710093355	-0.03715515	
1732710093356	-0.051574707	
1732710093357	-0.055770874	
1732710093358	-0.05821228	
1732710093359	-0.065460205	
1732710093360	-0.050354004	
1732710093361	-0.029830933	
1732710093362	-0.020217896	
1732710093363	-0.009231567	
1732710093364	4.5776367E-4	
1732710093365	0.0064849854	
1732710093366	0.0065612793	
1732710093367	0.010986328	
1732710093368	0.014953613	
1732710093369	0.012893677	
1732710093370	0.017242432	
1732710093371	0.009460449	
1732710093372	0.0035858154	
1732710093373	0.014953613	
1732710093374	0.009918213	
1732710093375	0.002670288	
1732710093376	0.00793457	
1732710093377	0.006942749	
1732710093378	0.006866455	
1732710093379	0.0025939941	
1732710093380	-0.0038146973	
1732710093381	-0.005264282	
1732710093382	-0.009231567	
1732710093383	-0.0016021729	
1732710093384	-0.0016784668	
1732710093385	-0.0019073486	
1732710093386	0.0019836426	
1732710093387	0.0046539307	
1732710093388	-0.0019836426	
1732710093389	-0.006866455	
1732710093390	8.392334E-4	
1732710093391	-0.002746582	
1732710093392	-3.0517578E-4	
1732710093393	9.1552734E-4	
1732710093394	-0.006790161	
1732710093395	-0.0090789795	
1732710093396	-0.002822876	
1732710093397	0.0038146973	
1732710093398	-0.0066375732	
1732710093399	-0.010604858	
1732710093400	-0.008544922	
1732710093401	-0.0024414062	
1732710093402	0.009231567	
1732710093403	-0.0022125244	
1732710093404	0.0012207031	
1732710093405	0.013504028	
1732710093406	0.0064849854	
1732710093407	0.0051879883	
1732710093408	0.0065612793	
1732710093409	0.009841919	
1732710093410	0.013656616	
1732710093411	0.006790161	
1732710093412	0.006790161	
1732710093413	-6.866455E-4	
1732710093414	-0.0033569336	
1732710093415	-0.0025939941	
1732710093416	-0.0029754639	
1732710093417	0.0010681152	
1732710093418	2.2888184E-4	
1732710093419	-0.003967285	
1732710093420	-0.005569458	
1732710093421	-0.00831604	
1732710093422	-0.012893677	
1732710093423	-0.016403198	
1732710093424	-0.0146484375	
1732710093425	-0.015792847	
1732710093426	-0.01739502	
1732710093427	-0.014343262	
1732710093428	-0.011520386	
1732710093429	-0.01373291	
1732710093430	-0.011062622	
1732710093431	-0.008544922	
1732710093432	-0.0059509277	
1732710093433	0.012664795	
1732710093434	0.013046265	
1732710093435	0.015182495	
1732710093436	0.026855469	
1732710093437	0.03288269	
1732710093438	0.04005432	
1732710093439	0.03326416	
1732710093440	0.025100708	
1732710093441	0.027236938	
1732710093442	0.004043579	
1732710093443	0.0065612793	
1732710093444	0.008544922	
1732710093445	0.008621216	
1732710093446	0.0077819824	
1732710093447	0.0064849854	
1732710093448	0.0012969971	
1732710093449	-0.004272461	
1732710093450	0.009918213	
1732710093451	0.007171631	
1732710093452	0.008392334	
1732710093453	0.01449585	
1732710093454	0.00869751	
1732710093455	0.0030517578	
1732710093456	-0.011138916	
1732710093457	-0.023880005	
1732710093458	-0.030059814	
1732710093459	-0.04600525	
1732710093460	-0.047836304	
1732710093461	-0.043029785	
1732710093462	-0.045013428	
1732710093463	-0.039520264	
1732710093464	-0.035247803	
1732710093465	-0.028839111	
1732710093466	-0.018920898	
1732710093467	-0.029296875	
1732710093468	-0.04219055	
1732710093469	-0.022964478	
1732710093470	-0.010910034	
1732710093471	-0.006866455	
1732710093472	0.012893677	
1732710093473	0.01373291	
1732710093474	0.013046265	
1732710093475	0.017929077	
1732710093476	0.022735596	
1732710093477	0.03135681	
1732710093478	0.02456665	
1732710093479	0.022888184	
1732710093480	0.028762817	
1732710093481	0.025405884	
1732710093482	0.018997192	
1732710093483	0.019760132	
1732710093484	0.024261475	
1732710093485	0.015106201	
1732710093486	0.01083374	
1732710093487	0.012664795	
1732710093488	0.0074005127	
1732710093489	0.0038909912	
1732710093490	0.006866455	
1732710093491	0.016403198	
1732710093492	0.01411438	
1732710093493	0.004119873	
1732710093494	-0.0015258789	
1732710093495	-0.0049591064	
1732710093496	-0.0018310547	
1732710093497	6.866455E-4	
1732710093498	0.0035858154	
1732710093499	0.0030517578	
1732710093500	0.00541687	
1732710093501	0.013122559	
1732710093502	0.012588501	
1732710093503	0.024719238	
1732710093504	0.017547607	
1732710093505	0.0048828125	
1732710093506	-0.00579834	
1732710093507	-0.020904541	
1732710093508	-0.014877319	
1732710093509	-0.019454956	
1732710093510	-0.022201538	
1732710093511	-0.02067566	
1732710093512	-0.017471313	
1732710093513	-0.021514893	
1732710093514	-0.028076172	
1732710093515	-0.022125244	
1732710093516	-0.018005371	
1732710093517	-0.013809204	
1732710093518	-0.015182495	
1732710093519	-0.008773804	
1732710093520	-0.009460449	
1732710093521	-0.007858276	
1732710093522	-0.004348755	
1732710093523	-0.00541687	
1732710093524	0.0038146973	
1732710093525	0.0024414062	
1732710093526	0.0035858154	
1732710093527	0.0029754639	
1732710093528	-0.001373291	
1732710093529	0.0075531006	
1732710093530	0.0037384033	
1732710093531	-0.0036621094	
1732710093532	-0.007247925	
1732710093533	-0.0061798096	
1732710093534	0.014801025	
1732710093535	0.008544922	
1732710093536	0.012054443	
1732710093537	0.023040771	
1732710093538	0.02960205	
1732710093539	0.04600525	
1732710093540	0.022735596	
1732710093541	-0.025939941	
1732710093542	-0.06729126	
1732710093543	-0.05317688	
1732710093544	-0.0018310547	
1732710093545	0.017929077	
1732710093546	0.029144287	
1732710093547	0.045166016	
1732710093548	0.053253174	
1732710093549	0.045166016	
1732710093550	0.03540039	
1732710093551	0.021438599	
1732710093552	-0.013198853	
1732710093553	-0.037612915	
1732710093554	-0.029678345	
1732710093555	-0.026321411	
1732710093556	-0.02281189	
1732710093557	-0.017471313	
1732710093558	-0.029907227	
1732710093559	-0.039367676	
1732710093560	-0.04875183	
1732710093561	-0.02960205	
1732710093562	-0.0066375732	
1732710093563	-0.009155273	
1732710093564	0.005645752	
1732710093565	0.015640259	
1732710093566	0.011138916	
1732710093567	0.020904541	
1732710093568	0.027999878	
1732710093569	0.024490356	
1732710093570	0.017318726	
1732710093571	0.009613037	
1732710093572	0.0012969971	
1732710093573	-0.010681152	
1732710093574	-0.013122559	
1732710093575	-0.006713867	
1732710093576	-0.026779175	
1732710093577	-0.052642822	
1732710093578	-0.03326416	
1732710093579	0.014801025	
1732710093580	0.03791809	
1732710093581	0.052642822	
1732710093582	0.07148743	
1732710093583	0.060195923	
1732710093584	0.05256653	
1732710093585	0.049591064	
1732710093586	-0.019073486	
1732710093587	-0.09933472	
1732710093588	-0.08850098	
1732710093589	-0.066986084	
1732710093590	-0.029220581	
1732710093591	0.025634766	
1732710093592	0.022506714	
1732710093593	0.01625061	
1732710093594	0.020599365	
1732710093595	0.025177002	
1732710093596	0.02998352	
1732710093597	0.018157959	
1732710093598	9.1552734E-4	
1732710093599	-0.0047302246	
1732710093600	-0.008239746	
1732710093601	-0.005722046	
1732710093602	-0.012283325	
1732710093603	-0.023803711	
1732710093604	-0.02067566	
1732710093605	-0.01625061	
1732710093606	-0.01625061	
1732710093607	-0.027618408	
1732710093608	-0.02204895	
1732710093609	-0.007019043	
1732710093610	-0.004501343	
1732710093611	0.0060272217	
1732710093612	0.009002686	
1732710093613	0.0061798096	
1732710093614	0.0051879883	
1732710093615	0.0016021729	
1732710093616	0.010147095	
1732710093617	1.5258789E-4	
1732710093618	-0.020446777	
1732710093619	-0.017318726	
1732710093620	-0.0066375732	
1732710093621	0.029830933	
1732710093622	0.07171631	
1732710093623	0.084228516	
1732710093624	0.0957489	
1732710093625	0.065841675	
1732710093626	0.039596558	
1732710093627	0.031051636	
1732710093628	-0.021896362	
1732710093629	-0.051193237	
1732710093630	-0.055541992	
1732710093631	-0.052108765	
1732710093632	-0.029144287	
1732710093633	-0.020751953	
1732710093634	-0.03074646	
1732710093635	-0.02861023	
1732710093636	-0.020751953	
1732710093637	-0.01449585	
1732710093638	-0.017089844	
1732710093639	-0.0074768066	
1732710093640	-0.011520386	
1732710093641	-0.016708374	
1732710093642	-0.0019073486	
1732710093643	-0.012741089	
1732710093644	-0.016860962	
1732710093645	-0.003967285	
1732710093646	0.016784668	
1732710093647	0.02532959	
1732710093648	0.019989014	
1732710093649	0.014801025	
1732710093650	-0.0061798096	
1732710093651	-0.009155273	
1732710093652	-0.006866455	
1732710093653	-0.032958984	
1732710093654	-0.055923462	
1732710093655	-0.0541687	
1732710093656	-0.033111572	
1732710093657	-0.019302368	
1732710093658	-0.016098022	
1732710093659	-0.010604858	
1732710093660	-0.009155273	
1732710093661	0.0064849854	
1732710093662	0.028457642	
1732710093663	0.03173828	
1732710093664	0.043029785	
1732710093665	0.06355286	
1732710093666	0.061950684	
1732710093667	0.03753662	
1732710093668	-0.008239746	
1732710093669	-0.019302368	
1732710093670	0.027236938	
1732710093671	0.0630188	
1732710093672	0.08331299	
1732710093673	0.10093689	
1732710093674	0.09361267	
1732710093675	0.07446289	
1732710093676	0.042114258	
1732710093677	-0.012588501	
1732710093678	-0.071640015	
1732710093679	-0.10269165	
1732710093680	-0.09109497	
1732710093681	-0.05569458	
1732710093682	-0.028381348	
1732710093683	6.866455E-4	
1732710093684	0.05569458	
1732710093685	0.03555298	
1732710093686	-0.08041382	
1732710093687	-0.12947083	
1732710093688	-0.10620117	
1732710093689	-0.07987976	
1732710093690	-0.030593872	
1732710093691	0.0032043457	
1732710093692	-0.045928955	
1732710093693	-0.1410675	
1732710093694	-0.10650635	
1732710093695	0.030212402	
1732710093696	0.016021729	
1732710093697	-0.05973816	
1732710093698	0.018234253	
1732710093699	0.12069702	
1732710093700	0.12557983	
1732710093701	0.09140015	
1732710093702	0.073776245	
1732710093703	0.09613037	
1732710093704	0.119018555	
1732710093705	0.14671326	
1732710093706	0.12176514	
1732710093707	0.0074768066	
1732710093708	-0.023651123	
1732710093709	0.032958984	
1732710093710	0.08003235	
1732710093711	0.043182373	
1732710093712	-0.08781433	
1732710093713	-0.16471863	
1732710093714	-0.113983154	
1732710093715	-0.01914978	
1732710093716	0.013046265	
1732710093717	0.004119873	
1732710093718	1.5258789E-4	
1732710093719	-0.006790161	
1732710093720	0.03501892	
1732710093721	0.1083374	
1732710093722	0.058517456	
1732710093723	-0.011291504	
1732710093724	0.0048828125	
1732710093725	-0.024719238	
1732710093726	-0.069732666	
1732710093727	-0.089645386	
1732710093728	-0.11428833	
1732710093729	-0.14755249	
1732710093730	-0.2029419	
1732710093731	-0.23849487	
1732710093732	-0.24971008	
1732710093733	-0.21766663	
1732710093734	-0.10360718	
1732710093735	-3.8146973E-4	
1732710093736	0.021743774	
1732710093737	0.009765625	
1732710093738	0.058135986	
1732710093739	0.16868591	
1732710093740	0.24581909	
1732710093741	0.25772095	
1732710093742	0.22232056	
1732710093743	0.24711609	
1732710093744	0.3227234	
1732710093745	0.31173706	
1732710093746	0.16647339	
1732710093747	-0.030441284	
1732710093748	-0.0920105	
1732710093749	-0.088272095	
1732710093750	-0.1751709	
1732710093751	-0.28038025	
1732710093752	-0.26397705	
1732710093753	-0.21232605	
1732710093754	-0.18005371	
1732710093755	-0.032958984	
1732710093756	0.0806427	
1732710093757	-0.0010681152	
1732710093758	-0.10391235	
1732710093759	-0.09376526	
1732710093760	-0.015411377	
1732710093761	0.05104065	
1732710093762	0.0630188	
1732710093763	0.044784546	
1732710093764	0.1322174	
1732710093765	0.19165039	
1732710093766	0.3085327	
1732710093767	0.5484009	
1732710093768	0.36193848	
1732710093769	0.06561279	
1732710093770	-0.02357483	
1732710093771	-0.23262024	
1732710093772	-0.27297974	
1732710093773	-0.044021606	
1732710093774	0.12214661	
1732710093775	0.1650238	
1732710093776	0.07972717	
1732710093777	-0.069122314	
1732710093778	-0.13938904	
1732710093779	-0.14068604	
1732710093780	-0.13214111	
1732710093781	-0.36132812	
1732710093782	-0.56900024	
1732710093783	-0.49987793	
1732710093784	-0.40740967	
1732710093785	-0.15220642	
1732710093786	0.03227234	
1732710093787	0.11619568	
1732710093788	0.24978638	
1732710093789	0.21965027	
1732710093790	0.38871765	
1732710093791	0.64720154	
1732710093792	0.4901886	
1732710093793	0.077819824	
1732710093794	-0.2205658	
1732710093795	-0.34828186	
1732710093796	-0.496521	
1732710093797	-0.4347229	
1732710093798	-0.21911621	
1732710093799	-0.094680786	
1732710093800	0.08995056	
1732710093801	0.20820618	
1732710093802	0.235672	
1732710093803	0.18157959	
1732710093804	0.015563965	
1732710093805	-0.037994385	
1732710093806	-0.012741089	
1732710093807	0.119628906	
1732710093808	0.33638	
1732710093809	0.362854	
1732710093810	0.28160095	
1732710093811	0.26138306	
1732710093812	0.23078918	
1732710093813	0.09742737	
1732710093814	-0.04562378	
1732710093815	-0.08178711	
1732710093816	-0.092315674	
1732710093817	-0.1235199	
1732710093818	-0.15083313	
1732710093819	-0.19821167	
1732710093820	-0.2218628	
1732710093821	-0.20462036	
1732710093822	-0.19264221	
1732710093823	-0.20820618	
1732710093824	-0.28450012	
1732710093825	-0.29914856	
1732710093826	-0.24085999	
1732710093827	-0.16288757	
1732710093828	-0.0818634	
1732710093829	-0.060272217	
1732710093830	-5.340576E-4	
1732710093831	0.09597778	
1732710093832	0.10765076	
1732710093833	0.2166748	
1732710093834	0.29418945	
1732710093835	0.14572144	
1732710093836	0.14335632	
1732710093837	0.24276733	
1732710093838	0.1537323	
1732710093839	0.045166016	
1732710093840	0.01991272	
1732710093841	0.06591797	
1732710093842	0.12069702	
1732710093843	0.062408447	
1732710093844	-0.004425049	
1732710093845	-0.05508423	
1732710093846	-0.20591736	
1732710093847	-0.24047852	
1732710093848	-0.07888794	
1732710093849	0.040512085	
1732710093850	0.22796631	
1732710093851	0.3501892	
1732710093852	0.14328003	
1732710093853	0.10147095	
1732710093854	0.3087616	
1732710093855	0.2796936	
1732710093856	-0.07774353	
1732710093857	-0.4372406	
1732710093858	-0.3665161	
1732710093859	-0.06729126	
1732710093860	0.013885498	
1732710093861	-0.16563416	
1732710093862	-0.14923096	
1732710093863	0.21484375	
1732710093864	0.39512634	
1732710093865	0.4473114	
1732710093866	0.3124237	
1732710093867	-0.16059875	
1732710093868	-0.39024353	
1732710093869	-0.4599762	
1732710093870	-0.4862213	
1732710093871	-0.28305054	
1732710093872	-0.13206482	
1732710093873	-0.020523071	
1732710093874	0.024719238	
1732710093875	0.025558472	
1732710093876	-0.042266846	
1732710093877	-0.2960205	
1732710093878	-0.26550293	
1732710093879	-0.092163086	
1732710093880	-0.20988464	
1732710093881	-0.23132324	
1732710093882	-0.056381226	
1732710093883	0.10772705	
1732710093884	0.22842407	
1732710093885	0.24131775	
1732710093886	0.29258728	
1732710093887	0.49957275	
1732710093888	0.5277252	
1732710093889	0.20851135	
1732710093890	-0.010757446	
1732710093891	0.014801025	
1732710093892	0.0063323975	
1732710093893	-0.08300781	
1732710093894	-0.30960083	
1732710093895	-0.4259491	
1732710093896	-0.15830994	
1732710093897	0.04020691	
1732710093898	0.1751709	
1732710093899	0.4826355	
1732710093900	0.66871643	
1732710093901	0.573349	
1732710093902	0.05432129	
1732710093903	-0.56404114	
1732710093904	-0.831604	
1732710093905	-0.71281433	
1732710093906	-0.18760681	
1732710093907	0.18447876	
1732710093908	0.5465698	
1732710093909	1.0029602	
1732710093910	0.8456421	
1732710093911	0.4473877	
1732710093912	-0.31288147	
1732710093913	-0.86875916	
1732710093914	-0.36865234	
1732710093915	0.045394897	
1732710093916	0.23506165	
1732710093917	0.43395996	
1732710093918	-0.07270813	
1732710093919	-0.9793091	
1732710093920	-1.2149811	
1732710093921	-0.84846497	
1732710093922	-0.72410583	
1732710093923	-0.3842163	
1732710093924	0.5242157	
1732710093925	1.1245728	
1732710093926	1.1458588	
1732710093927	0.7209778	
1732710093928	0.16677856	
1732710093929	-0.100250244	
1732710093930	-0.24002075	
1732710093931	-0.19706726	
1732710093932	-0.015945435	
1732710093933	-0.054779053	
1732710093934	-0.21629333	
1732710093935	-0.26161194	
1732710093936	-0.13763428	
1732710093937	-0.045394897	
1732710093938	-0.028152466	
1732710093939	-0.07621765	
1732710093940	-0.3176117	
1732710093941	-0.4838562	
1732710093942	-0.32684326	
1732710093943	-0.17211914	
1732710093944	0.022354126	
1732710093945	0.42282104	
1732710093946	0.7318115	
1732710093947	0.9564209	
1732710093948	0.8933258	
1732710093949	0.6045532	
1732710093950	0.5066681	
1732710093951	0.29281616	
1732710093952	-0.12710571	
1732710093953	-0.3981781	
1732710093954	-0.6226349	
1732710093955	-0.7437897	
1732710093956	-0.59936523	
1732710093957	-0.6158447	
1732710093958	-0.6678009	
1732710093959	-0.26184082	
1732710093960	0.20339966	
1732710093961	0.34484863	
1732710093962	0.41778564	
1732710093963	0.6536102	
1732710093964	0.8568573	
1732710093965	0.6562805	
1732710093966	0.011978149	
1732710093967	-0.4613495	
1732710093968	-0.53489685	
1732710093969	-0.53993225	
1732710093970	-0.4296875	
1732710093971	-0.27435303	
1732710093972	-0.13381958	
1732710093973	-0.054855347	
1732710093974	-0.36865234	
1732710093975	-0.6348419	
1732710093976	-0.10437012	
1732710093977	0.5117035	
1732710093978	0.610199	
1732710093979	0.7194519	
1732710093980	0.7785797	
1732710093981	0.48965454	
1732710093982	-0.111083984	
1732710093983	-0.4689026	
1732710093984	-0.37490845	
1732710093985	-0.32615662	
1732710093986	-0.23727417	
1732710093987	-0.14038086	
1732710093988	-0.27114868	
1732710093989	-0.4031372	
1732710093990	-0.31845093	
1732710093991	-0.020523071	
1732710093992	0.29571533	
1732710093993	0.5252075	
1732710093994	0.61935425	
1732710093995	0.5503845	
1732710093996	0.39375305	
1732710093997	0.1613617	
1732710093998	-0.091934204	
1732710093999	-0.15449524	
1732710094000	-0.12641907	
1732710094001	-0.28068542	
1732710094002	-0.37574768	
1732710094003	-0.24261475	
1732710094004	-0.16616821	
1732710094005	-0.13404846	
1732710094006	0.045700073	
1732710094007	0.2694702	
1732710094008	0.42037964	
1732710094009	0.41656494	
1732710094010	0.16487122	
1732710094011	-0.1953888	
1732710094012	-0.35095215	
1732710094013	-0.31402588	
1732710094014	-0.26878357	
1732710094015	-0.24810791	
1732710094016	-0.36575317	
1732710094017	-0.43655396	
1732710094018	-0.105895996	
1732710094019	0.3212738	
1732710094020	0.5380249	
1732710094021	0.59806824	
1732710094022	0.5482483	
1732710094023	0.45143127	
1732710094024	0.005340576	
1732710094025	-0.45410156	
1732710094026	-0.27313232	
1732710094027	-0.02571106	
1732710094028	0.023345947	
1732710094029	0.15014648	
1732710094030	0.114746094	
1732710094031	-0.068359375	
1732710094032	-0.23071289	
1732710094033	-0.27435303	
1732710094034	-0.20271301	
1732710094035	-0.13877869	
1732710094036	-0.06401062	
1732710094037	-0.026779175	
1732710094038	-0.09269714	
1732710094039	-0.21057129	
1732710094040	-0.1486206	
1732710094041	-0.046157837	
1732710094042	-0.28663635	
1732710094043	-0.3578949	
1732710094044	0.061340332	
1732710094045	0.44555664	
1732710094046	0.6240845	
1732710094047	0.62080383	
1732710094048	0.5862427	
1732710094049	0.50827026	
1732710094050	0.14381409	
1732710094051	-0.042114258	
1732710094052	-0.0693512	
1732710094053	-0.23368835	
1732710094054	-0.2658844	
1732710094055	-0.27114868	
1732710094056	-0.3314209	
1732710094057	-0.25917053	
1732710094058	-0.15792847	
1732710094059	-0.11383057	
1732710094060	-0.08934021	
1732710094061	-0.131073	
1732710094062	-0.22521973	
1732710094063	-0.1764679	
1732710094064	-0.034103394	
1732710094065	0.0680542	
1732710094066	0.21987915	
1732710094067	0.29411316	
1732710094068	0.26504517	
1732710094069	0.2997589	
1732710094070	0.25489807	
1732710094071	-0.041046143	
1732710094072	-0.35591125	
1732710094073	-0.4333496	
1732710094074	-0.2796936	
1732710094075	-0.08003235	
1732710094076	0.06767273	
1732710094077	0.2685547	
1732710094078	0.49232483	
1732710094079	0.5431366	
1732710094080	0.2610016	
1732710094081	0.016708374	
1732710094082	0.041885376	
1732710094083	-0.031204224	
1732710094084	-0.16967773	
1732710094085	-0.23635864	
1732710094086	-0.22758484	
1732710094087	-0.16586304	
1732710094088	-0.10520935	
1732710094089	-0.0315094	
1732710094090	-0.0037384033	
1732710094091	-0.021972656	
1732710094092	-0.074539185	
1732710094093	-0.10261536	
1732710094094	-0.06271362	
1732710094095	-0.04257202	
1732710094096	-0.030822754	
1732710094097	-0.026931763	
1732710094098	-0.034561157	
1732710094099	-0.009155273	
1732710094100	-3.8146973E-4	
1732710094101	-0.09597778	
1732710094102	-0.20172119	
1732710094103	-0.04814148	
1732710094104	0.10093689	
1732710094105	0.0050354004	
1732710094106	0.05180359	
1732710094107	0.17227173	
1732710094108	0.20904541	
1732710094109	0.21011353	
1732710094110	0.09017944	
1732710094111	0.09422302	
1732710094112	0.21461487	
1732710094113	0.22354126	
1732710094114	0.2242279	
1732710094115	0.17311096	
1732710094116	0.020751953	
1732710094117	-0.13999939	
1732710094118	-0.21499634	
1732710094119	-0.15396118	
1732710094120	-0.06538391	
1732710094121	-0.10017395	
1732710094122	-0.2861023	
1732710094123	-0.5332184	
1732710094124	-0.6348419	
1732710094125	-0.34049988	
1732710094126	0.09963989	
1732710094127	0.27572632	
1732710094128	0.24772644	
1732710094129	0.19744873	
1732710094130	0.38848877	
1732710094131	0.55503845	
1732710094132	0.32913208	
1732710094133	0.16029358	
1732710094134	0.17112732	
1732710094135	-0.005569458	
1732710094136	-0.23490906	
1732710094137	-0.24665833	
1732710094138	-0.20240784	
1732710094139	-0.25115967	
1732710094140	-0.15182495	
1732710094141	0.107421875	
1732710094142	0.1071167	
1732710094143	-0.038757324	
1732710094144	0.022277832	
1732710094145	0.03501892	
1732710094146	-0.072631836	
1732710094147	-0.24383545	
1732710094148	-0.35484314	
1732710094149	-0.16319275	
1732710094150	-0.010299683	
1732710094151	-0.00793457	
1732710094152	0.0554657	
1732710094153	0.09109497	
1732710094154	0.14533997	
1732710094155	0.12237549	
1732710094156	0.014572144	
1732710094157	0.030899048	
1732710094158	0.0566864	
1732710094159	0.051116943	
1732710094160	0.053329468	
1732710094161	0.04508972	
1732710094162	0.057678223	
1732710094163	0.05142212	
1732710094164	0.039749146	
1732710094165	0.055160522	
1732710094166	0.06515503	
1732710094167	0.056152344	
1732710094168	-0.007019043	
1732710094169	-0.14190674	
1732710094170	-0.21957397	
1732710094171	-0.182724	
1732710094172	-0.10925293	
1732710094173	-0.028381348	
1732710094174	-0.009689331	
1732710094175	0.07400513	
1732710094176	0.28640747	
1732710094177	0.3501892	
1732710094178	0.23376465	
1732710094179	0.13999939	
1732710094180	0.23872375	
1732710094181	0.33042908	
1732710094182	0.08583069	
1732710094183	-0.17272949	
1732710094184	-0.22041321	
1732710094185	-0.286026	
1732710094186	-0.34240723	
1732710094187	-0.4045868	
1732710094188	-0.45425415	
1732710094189	-0.23506165	
1732710094190	-0.0034332275	
1732710094191	0.018005371	
1732710094192	0.03463745	
1732710094193	0.08850098	
1732710094194	0.17272949	
1732710094195	0.19805908	
1732710094196	0.08415222	
1732710094197	-0.03845215	
1732710094198	0.004425049	
1732710094199	-0.05180359	
1732710094200	-0.3352356	
1732710094201	-0.30700684	
1732710094202	-0.13298035	
1732710094203	-0.119400024	
1732710094204	0.09971619	
1732710094205	0.4120636	
1732710094206	0.59524536	
1732710094207	0.54489136	
1732710094208	0.3000641	
1732710094209	0.14022827	
1732710094210	0.08155823	
1732710094211	0.124053955	
1732710094212	0.08338928	
1732710094213	-0.05355835	
1732710094214	-0.15151978	
1732710094215	-0.2420044	
1732710094216	-0.22621155	
1732710094217	-0.20942688	
1732710094218	-0.21865845	
1732710094219	-0.17662048	
1732710094220	-0.16395569	
1732710094221	-0.13237	
1732710094222	-0.09552002	
1732710094223	-0.07034302	
1732710094224	-0.040512085	
1732710094225	-0.028533936	
1732710094226	-0.008392334	
1732710094227	0.0017547607	
1732710094228	0.017700195	
1732710094229	0.042800903	
1732710094230	0.054779053	
1732710094231	0.080718994	
1732710094232	0.10185242	
1732710094233	0.09338379	
1732710094234	0.08583069	
1732710094235	0.07759094	
1732710094236	0.06011963	
1732710094237	0.050201416	
1732710094238	0.046157837	
1732710094239	0.051193237	
1732710094240	0.037384033	
1732710094241	0.0104522705	
1732710094242	0.03425598	
1732710094243	0.041656494	
1732710094244	-0.003967285	
1732710094245	-0.0077819824	
1732710094246	0.0017547607	
1732710094247	-0.008621216	
1732710094248	-0.005493164	
1732710094249	-0.030899048	
1732710094250	-0.05203247	
1732710094251	-0.049819946	
1732710094252	-0.055770874	
1732710094253	-0.037384033	
1732710094254	-0.035476685	
1732710094255	-0.05180359	
1732710094256	-0.045013428	
1732710094257	-0.043640137	
1732710094258	-0.029907227	
1732710094259	0.0146484375	
1732710094260	0.032730103	
1732710094261	0.01625061	
1732710094262	0.012588501	
1732710094263	0.0045776367	
1732710094264	-0.014877319	
1732710094265	-0.018005371	
1732710094266	-0.009536743	
1732710094267	-0.0032043457	
1732710094268	-0.008010864	
1732710094269	-0.001449585	
1732710094270	0.007858276	
1732710094271	-0.0011444092	
1732710094272	-0.0017547607	
1732710094273	0.01083374	
1732710094274	0.019683838	
1732710094275	0.015411377	
1732710094276	0.020904541	
1732710094277	0.03593445	
1732710094278	0.031051636	
1732710094279	0.02609253	
1732710094280	0.015716553	
1732710094281	-0.0025177002	
1732710094282	0.0012969971	
1732710094283	0.008392334	
1732710094284	0.015335083	
1732710094285	0.021057129	
1732710094286	0.0029754639	
1732710094287	-0.0011444092	
1732710094288	0.012817383	
1732710094289	0.011520386	
1732710094290	-0.0047302246	
1732710094291	-0.021743774	
1732710094292	-0.025787354	
1732710094293	-0.033187866	
1732710094294	-0.036010742	
1732710094295	-0.027389526	
1732710094296	-0.02357483	
1732710094297	-0.013427734	
1732710094298	-0.011672974	
1732710094299	-0.01991272	
1732710094300	-0.016784668	
1732710094301	-3.0517578E-4	
1732710094302	0.025863647	
1732710094303	0.021743774	
1732710094304	0.0010681152	
1732710094305	0.0077056885	
1732710094306	0.020751953	
1732710094307	0.012588501	
1732710094308	-0.0035858154	
1732710094309	-0.0038146973	
1732710094310	-0.0034332275	
1732710094311	0.009536743	
1732710094312	0.015487671	
1732710094313	0.008163452	
1732710094314	0.01625061	
1732710094315	0.0011444092	
1732710094316	-0.0019073486	
1732710094317	-0.0015258789	
1732710094318	-0.02067566	
1732710094319	-0.020599365	
1732710094320	-0.03036499	
1732710094321	-0.036621094	
1732710094322	-0.028686523	
1732710094323	0.010681152	
1732710094324	0.06416321	
1732710094325	0.054244995	
1732710094326	0.042266846	
1732710094327	0.04081726	
1732710094328	0.011291504	
1732710094329	0.0025939941	
1732710094330	0.0021362305	
1732710094331	-0.004043579	
1732710094332	-0.016708374	
1732710094333	-0.025024414	
1732710094334	-0.015335083	
1732710094335	-0.00869751	
1732710094336	-0.015258789	
1732710094337	-0.023422241	
1732710094338	-0.016708374	
1732710094339	-0.008926392	
1732710094340	-0.004501343	
1732710094341	-0.00289917	
1732710094342	-0.016479492	
1732710094343	-0.02571106	
1732710094344	-0.027618408	
1732710094345	-0.014038086	
1732710094346	0.0021362305	
1732710094347	-0.0104522705	
1732710094348	-0.013656616	
1732710094349	-0.011444092	
1732710094350	0.0036621094	
1732710094351	0.028762817	
1732710094352	0.030288696	
1732710094353	0.060958862	
1732710094354	0.08277893	
1732710094355	0.04547119	
1732710094356	0.014419556	
1732710094357	0.012664795	
1732710094358	-0.004119873	
1732710094359	-0.01991272	
1732710094360	-0.02571106	
1732710094361	-0.054092407	
1732710094362	-0.03440857	
1732710094363	0.0031280518	
1732710094364	-0.007858276	
1732710094365	0.006790161	
1732710094366	0.027236938	
1732710094367	0.014953613	
1732710094368	-0.016555786	
1732710094369	-0.048294067	
1732710094370	-0.06942749	
1732710094371	-0.08300781	
1732710094372	-0.044555664	
1732710094373	-0.007171631	
1732710094374	0.0066375732	
1732710094375	0.07675171	
1732710094376	0.17044067	
1732710094377	0.17051697	
1732710094378	0.056610107	
1732710094379	-0.015563965	
1732710094380	-0.055618286	
1732710094381	-0.09513855	
1732710094382	-0.04508972	
1732710094383	-3.0517578E-4	
1732710094384	-0.01953125	
1732710094385	-0.03868103	
1732710094386	-0.047073364	
1732710094387	-0.05355835	
1732710094388	-0.024719238	
1732710094389	0.015640259	
1732710094390	0.06881714	
1732710094391	0.107803345	
1732710094392	0.054092407	
1732710094393	0.0032043457	
1732710094394	-0.0119018555	
1732710094395	-0.016021729	
1732710094396	-0.0051879883	
1732710094397	-0.018234253	
1732710094398	-0.02822876	
1732710094399	-0.028839111	
1732710094400	-0.030441284	
1732710094401	-0.030212402	
1732710094402	-0.009155273	
1732710094403	0.027160645	
1732710094404	0.02029419	
1732710094405	-0.0038909912	
1732710094406	-0.023727417	
1732710094407	-0.046844482	
1732710094408	-0.040130615	
1732710094409	-0.009002686	
1732710094410	0.008468628	
1732710094411	0.0017547607	
1732710094412	4.5776367E-4	
1732710094413	0.011367798	
1732710094414	0.023269653	
1732710094415	0.021438599	
1732710094416	0.01991272	
1732710094417	0.038604736	
1732710094418	0.022201538	
1732710094419	0.0019836426	
1732710094420	0.009536743	
1732710094421	8.392334E-4	
1732710094422	0.0038909912	
1732710094423	0.010757446	
1732710094424	0.0037384033	
1732710094425	0.005645752	
1732710094426	0.003967285	
1732710094427	0.012969971	
1732710094428	0.023498535	
1732710094429	0.0010681152	
1732710094430	-0.006713867	
1732710094431	-0.0030517578	
1732710094432	-0.01411438	
1732710094433	-1.5258789E-4	
1732710094434	0.0074005127	
1732710094435	-0.0030517578	
1732710094436	-0.0034332275	
1732710094437	-0.0062561035	
1732710094438	-0.0049591064	
1732710094439	-0.0019073486	
1732710094440	-0.013427734	
1732710094441	-0.020141602	
1732710094442	-0.013580322	
1732710094443	-0.022659302	
1732710094444	-0.030670166	
1732710094445	-0.0104522705	
1732710094446	-2.2888184E-4	
1732710094447	-0.0022125244	
1732710094448	0.001449585	
1732710094449	-0.004043579	
1732710094450	-0.008926392	
1732710094451	-0.007095337	
1732710094452	-0.004348755	
1732710094453	-4.5776367E-4	
1732710094454	8.392334E-4	
1732710094455	0.0065612793	
1732710094456	0.012664795	
1732710094457	0.010604858	
1732710094458	0.011367798	
1732710094459	0.012054443	
1732710094460	0.009536743	
1732710094461	0.011520386	
1732710094462	0.0038909912	
1732710094463	0.002746582	
1732710094464	0.0048065186	
1732710094465	0.0020599365	
1732710094466	0.00869751	
1732710094467	0.015411377	
1732710094468	0.009689331	
1732710094469	0.004043579	
1732710094470	0.0061035156	
1732710094471	0.0031280518	
1732710094472	-0.002822876	
1732710094473	-0.016174316	
1732710094474	-0.015182495	
1732710094475	-0.018615723	
1732710094476	-0.02822876	
1732710094477	-0.021591187	
1732710094478	-0.01991272	
1732710094479	-0.015563965	
1732710094480	-0.006790161	
1732710094481	-0.011749268	
1732710094482	-0.0038146973	
1732710094483	0.014419556	
1732710094484	0.02029419	
1732710094485	0.030593872	
1732710094486	0.03517151	
1732710094487	0.04234314	
1732710094488	0.052108765	
1732710094489	0.056152344	
1732710094490	0.062561035	
1732710094491	0.062332153	
1732710094492	0.056915283	
1732710094493	0.04425049	
1732710094494	0.030822754	
1732710094495	0.016708374	
1732710094496	0.0031280518	
1732710094497	-0.008850098	
1732710094498	-0.030975342	
1732710094499	-0.05340576	
1732710094500	-0.0693512	
1732710094501	-0.07583618	
1732710094502	-0.07141113	
1732710094503	-0.07774353	
1732710094504	-0.07972717	
1732710094505	-0.089263916	
1732710094506	-0.15029907	
1732710094507	-0.2104187	
1732710094508	-0.15975952	
1732710094509	-0.04776001	
1732710094510	0.009307861	
1732710094511	0.06477356	
1732710094512	0.1273346	
1732710094513	0.13626099	
1732710094514	0.1121521	
1732710094515	0.048294067	
1732710094516	-0.04447937	
1732710094517	-0.113983154	
1732710094518	-0.12260437	
1732710094519	-0.07774353	
1732710094520	0.0076293945	
1732710094521	0.10131836	
1732710094522	0.15480042	
1732710094523	0.1714325	
1732710094524	0.1399231	
1732710094525	0.080566406	
1732710094526	0.120010376	
1732710094527	0.18173218	
1732710094528	0.10787964	
1732710094529	0.0037384033	
1732710094530	-0.0048828125	
1732710094531	0.044403076	
1732710094532	0.005645752	
1732710094533	-0.08163452	
1732710094534	-0.08277893	
1732710094535	-0.078125	
1732710094536	-0.028839111	
1732710094537	0.06439209	
1732710094538	0.07835388	
1732710094539	0.08117676	
1732710094540	0.05821228	
1732710094541	-0.0025177002	
1732710094542	-0.04951477	
1732710094543	-0.117111206	
1732710094544	-0.16952515	
1732710094545	-0.19050598	
1732710094546	-0.1851654	
1732710094547	-0.15190125	
1732710094548	-0.13420105	
1732710094549	-0.09460449	
1732710094550	-0.032577515	
1732710094551	0.005264282	
1732710094552	0.05378723	
1732710094553	0.08583069	
1732710094554	0.06309509	
1732710094555	0.009002686	
1732710094556	3.8146973E-4	
1732710094557	0.036849976	
1732710094558	0.03944397	
1732710094559	0.039138794	
1732710094560	0.048828125	
1732710094561	0.04425049	
1732710094562	0.041275024	
1732710094563	0.036697388	
1732710094564	0.023880005	
1732710094565	0.012435913	
1732710094566	0.02204895	
1732710094567	0.028839111	
1732710094568	0.027008057	
1732710094569	0.029678345	
1732710094570	0.035629272	
1732710094571	0.040664673	
1732710094572	0.025253296	
1732710094573	0.01159668	
1732710094574	0.024261475	
1732710094575	0.030822754	
1732710094576	0.010223389	
1732710094577	-0.009002686	
1732710094578	-0.00541687	
1732710094579	0.0060272217	
1732710094580	0.0033569336	
1732710094581	-0.028076172	
1732710094582	-0.06896973	
1732710094583	-0.08026123	
1732710094584	-0.06652832	
1732710094585	-0.04951477	
1732710094586	-0.02494812	
1732710094587	0.0051116943	
1732710094588	0.019989014	
1732710094589	0.0016784668	
1732710094590	-0.050735474	
1732710094591	-0.0793457	
1732710094592	-0.089416504	
1732710094593	-0.09063721	
1732710094594	-0.04234314	
1732710094595	0.050964355	
1732710094596	0.17692566	
1732710094597	0.24856567	
1732710094598	0.2619934	
1732710094599	0.22964478	
1732710094600	0.13389587	
1732710094601	0.009231567	
1732710094602	-0.12870789	
1732710094603	-0.18455505	
1732710094604	-0.21942139	
1732710094605	-0.23880005	
1732710094606	-0.19294739	
1732710094607	-0.1612854	
1732710094608	-0.10696411	
1732710094609	-0.06210327	
1732710094610	-0.064468384	
1732710094611	-0.058288574	
1732710094612	-0.052719116	
1732710094613	-0.010299683	
1732710094614	0.03501892	
1732710094615	0.010147095	
1732710094616	-0.029296875	
1732710094617	-0.014038086	
1732710094618	0.05378723	
1732710094619	0.06774902	
1732710094620	0.060653687	
1732710094621	0.16555786	
1732710094622	0.28877258	
1732710094623	0.3451538	
1732710094624	0.29167175	
1732710094625	0.16418457	
1732710094626	0.10032654	
1732710094627	0.11947632	
1732710094628	0.14511108	
1732710094629	0.090789795	
1732710094630	-0.08178711	
1732710094631	-0.34118652	
1732710094632	-0.40245056	
1732710094633	-0.16494751	
1732710094634	0.018615723	
1732710094635	0.10803223	
1732710094636	0.20896912	
1732710094637	0.19958496	
1732710094638	0.13389587	
1732710094639	0.05256653	
1732710094640	-0.046310425	
1732710094641	-0.1410675	
1732710094642	-0.26679993	
1732710094643	-0.30899048	
1732710094644	-0.25428772	
1732710094645	-0.19233704	
1732710094646	-0.15007019	
1732710094647	-0.1260376	
1732710094648	-0.08415222	
1732710094649	-0.05996704	
1732710094650	-0.06782532	
1732710094651	-0.099868774	
1732710094652	-0.07926941	
1732710094653	0.032196045	
1732710094654	0.09635925	
1732710094655	0.13198853	
1732710094656	0.14823914	
1732710094657	0.08972168	
1732710094658	0.05744934	
1732710094659	0.07209778	
1732710094660	0.06645203	
1732710094661	0.025024414	
1732710094662	0.030288696	
1732710094663	0.09239197	
1732710094664	0.14213562	
1732710094665	0.17471313	
1732710094666	0.14701843	
1732710094667	0.063934326	
1732710094668	-0.006713867	
1732710094669	-0.026168823	
1732710094670	0.002822876	
1732710094671	0.024414062	
1732710094672	0.012130737	
1732710094673	0.0033569336	
1732710094674	-6.866455E-4	
1732710094675	-0.02861023	
1732710094676	-0.061569214	
1732710094677	-0.06820679	
1732710094678	-0.054397583	
1732710094679	-0.058670044	
1732710094680	-0.048446655	
1732710094681	0.021133423	
1732710094682	0.09277344	
1732710094683	0.12283325	
1732710094684	0.11741638	
1732710094685	0.061645508	
1732710094686	-0.019607544	
1732710094687	-0.082092285	
1732710094688	-0.13320923	
1732710094689	-0.1662445	
1732710094690	-0.15571594	
1732710094691	-0.121536255	
1732710094692	-0.08888245	
1732710094693	-0.037841797	
1732710094694	-0.0022125244	
1732710094695	-0.007095337	
1732710094696	-0.0064086914	
1732710094697	-0.0018310547	
1732710094698	0.0050354004	
1732710094699	0.02418518	
1732710094700	0.02746582	
1732710094701	0.018310547	
1732710094702	0.025024414	
1732710094703	0.029296875	
1732710094704	0.021133423	
1732710094705	0.019302368	
1732710094706	0.019454956	
1732710094707	0.018844604	
1732710094708	0.016403198	
1732710094709	0.023803711	
1732710094710	0.034179688	
1732710094711	0.02861023	
1732710094712	0.01838684	
1732710094713	0.016555786	
1732710094714	0.018081665	
1732710094715	0.018539429	
1732710094716	0.015640259	
1732710094717	0.011749268	
1732710094718	0.012359619	
1732710094719	0.014419556	
1732710094720	0.012283325	
1732710094721	0.014953613	
1732710094722	0.011749268	
1732710094723	0.0029754639	
1732710094724	0.0022888184	
1732710094725	-0.0020599365	
1732710094726	-0.004043579	
1732710094727	-0.010681152	
1732710094728	-0.015258789	
1732710094729	-0.012664795	
1732710094730	-0.013198853	
1732710094731	-0.015640259	
1732710094732	-0.014419556	
1732710094733	-0.019989014	
1732710094734	-0.016937256	
