# OpenSignals Text File Format
# {"00:80:E1:26:A1:B0":{"sensor":["EMG"],"device name":"00:80:E1:26:A1:B0","column":["timestamp","EMG"],"sync interval":2,"time":"09:34:59","comments":"","keywords":"","device connection":"BLE00:80:E1:26:A1:B0","channels":[0],"date":"2025-03-03","mode":0,"digital IO":[],"firmware version":259,"device":"musclebanplux","position":0,"sampling rate":1000,"label":["EMG"],"resolution":[16],"special":[{}],"sleeve color":["UNKNOWN"]}}
# EndOfHeader
1740990899942	0.023498535	
1740990899943	0.01335144	
1740990899944	-0.005569458	
1740990899945	-0.004043579	
1740990899946	0.008773804	
1740990899947	-0.0025939941	
1740990899948	-0.015029907	
1740990899949	-0.010604858	
1740990899950	-0.003967285	
1740990899951	-0.008010864	
1740990899952	-0.008850098	
1740990899953	-0.0022888184	
1740990899954	0.0036621094	
1740990899955	7.6293945E-4	
1740990899956	-0.0015258789	
1740990899957	0.0032806396	
1740990899958	0.0064086914	
1740990899959	0.01739502	
1740990899960	0.015182495	
1740990899961	0.0035858154	
1740990899962	0.01159668	
1740990899963	6.866455E-4	
1740990899964	-0.0051116943	
1740990899965	-0.0015258789	
1740990899966	-0.018692017	
1740990899967	-0.005493164	
1740990899968	0.0050354004	
1740990899969	-0.0063323975	
1740990899970	-0.009307861	
1740990899971	-0.008468628	
1740990899972	-0.002822876	
1740990899973	0.002822876	
1740990899974	0.009765625	
1740990899975	0.0016021729	
1740990899976	-0.010910034	
1740990899977	0.0033569336	
1740990899978	0.013885498	
1740990899979	0.016784668	
1740990899980	0.014038086	
1740990899981	-5.340576E-4	
1740990899982	-0.028762817	
1740990899983	-0.05027771	
1740990899984	-0.028686523	
1740990899985	0.013656616	
1740990899986	0.05882263	
1740990899987	0.054016113	
1740990899988	-0.00541687	
1740990899989	-0.013198853	
1740990899990	-0.014190674	
1740990899991	-0.02822876	
1740990899992	-0.008010864	
1740990899993	-0.0024414062	
1740990899994	0.018692017	
1740990899995	0.015792847	
1740990899996	-0.015716553	
1740990899997	-0.00541687	
1740990899998	-0.012359619	
1740990899999	-0.01411438	
1740990900000	-0.001373291	
1740990900001	-0.0016021729	
1740990900002	0.014190674	
1740990900003	0.016937256	
1740990900004	0.008621216	
1740990900005	-0.004348755	
1740990900006	-0.009689331	
1740990900007	0.010910034	
1740990900008	0.010375977	
1740990900009	-5.340576E-4	
1740990900010	-0.009307861	
1740990900011	-0.017547607	
1740990900012	-9.1552734E-4	
1740990900013	0.0036621094	
1740990900014	-7.6293945E-5	
1740990900015	0.012283325	
1740990900016	0.010986328	
1740990900017	0.0024414062	
1740990900018	-0.0016021729	
1740990900019	-0.0018310547	
1740990900020	-0.008392334	
1740990900021	-0.003967285	
1740990900022	0.019836426	
1740990900023	0.013198853	
1740990900024	-0.0018310547	
1740990900025	0.0022125244	
1740990900026	0.0046539307	
1740990900027	-0.007858276	
1740990900028	-0.022125244	
1740990900029	-0.0077819824	
1740990900030	0.005645752	
1740990900031	-0.008392334	
1740990900032	-0.013809204	
1740990900033	-6.1035156E-4	
1740990900034	0.008239746	
1740990900035	-0.004043579	
1740990900036	-0.015945435	
1740990900037	-0.0022888184	
1740990900038	0.005874634	
1740990900039	0.008773804	
1740990900040	0.012130737	
1740990900041	-0.0016021729	
1740990900042	0.0020599365	
1740990900043	0.008773804	
1740990900044	-0.0051116943	
1740990900045	-0.005569458	
1740990900046	0.0073242188	
1740990900047	0.016860962	
1740990900048	0.0104522705	
1740990900049	0.001449585	
1740990900050	-0.0035095215	
1740990900051	-0.011749268	
1740990900052	-0.009460449	
1740990900053	-0.0032043457	
1740990900054	0.0045776367	
1740990900055	0.013427734	
1740990900056	0.009689331	
1740990900057	-0.0051116943	
1740990900058	-0.008468628	
1740990900059	7.6293945E-5	
1740990900060	0.0025939941	
1740990900061	0.0037384033	
1740990900062	0.0034332275	
1740990900063	-0.002822876	
1740990900064	-0.0047302246	
1740990900065	-0.002822876	
1740990900066	-0.0050354004	
1740990900067	-0.004348755	
1740990900068	-0.005874634	
1740990900069	-0.010528564	
1740990900070	-0.0018310547	
1740990900071	0.0061035156	
1740990900072	0.006713867	
1740990900073	0.002670288	
1740990900074	-0.006866455	
1740990900075	-0.0077056885	
1740990900076	-0.001449585	
1740990900077	5.340576E-4	
1740990900078	-0.0031280518	
1740990900079	-0.009155273	
1740990900080	9.1552734E-4	
1740990900081	0.004425049	
1740990900082	-0.0035858154	
1740990900083	0.02067566	
1740990900084	0.043640137	
1740990900085	0.009384155	
1740990900086	-0.01739502	
1740990900087	0.0050354004	
1740990900088	0.024261475	
1740990900089	0.014877319	
1740990900090	-0.03715515	
1740990900091	-0.062026978	
1740990900092	-0.020751953	
1740990900093	-0.001449585	
1740990900094	-0.005645752	
1740990900095	-0.015106201	
1740990900096	-0.011367798	
1740990900097	0.004196167	
1740990900098	0.008239746	
1740990900099	0.032424927	
1740990900100	0.025253296	
1740990900101	-2.2888184E-4	
1740990900102	0.013580322	
1740990900103	0.02204895	
1740990900104	0.019302368	
1740990900105	0.00793457	
1740990900106	-0.011138916	
1740990900107	-0.017089844	
1740990900108	-0.012893677	
1740990900109	-0.0023651123	
1740990900110	0.013427734	
1740990900111	0.023498535	
1740990900112	0.016021729	
1740990900113	1.5258789E-4	
1740990900114	-0.0074768066	
1740990900115	-0.008239746	
1740990900116	-0.011138916	
1740990900117	-0.015335083	
1740990900118	-0.013122559	
1740990900119	-0.012893677	
1740990900120	-0.010681152	
1740990900121	-0.0032043457	
1740990900122	-0.0022125244	
1740990900123	-7.6293945E-5	
1740990900124	-0.0015258789	
1740990900125	-0.009155273	
1740990900126	-0.008087158	
1740990900127	1.5258789E-4	
1740990900128	0.0038909912	
1740990900129	0.004425049	
1740990900130	0.0066375732	
1740990900131	0.0019073486	
1740990900132	-0.0019073486	
1740990900133	0.007019043	
1740990900134	0.010528564	
1740990900135	0.008163452	
1740990900136	0.0074768066	
1740990900137	0.0060272217	
1740990900138	0.0050354004	
1740990900139	0.0032806396	
1740990900140	-3.8146973E-4	
1740990900141	0.0019073486	
1740990900142	0.004425049	
1740990900143	0.0010681152	
1740990900144	-6.1035156E-4	
1740990900145	-0.0050354004	
1740990900146	-0.0051116943	
1740990900147	-0.001449585	
1740990900148	-0.0036621094	
1740990900149	-0.0022888184	
1740990900150	-0.0035095215	
1740990900151	-0.0016021729	
1740990900152	-6.1035156E-4	
1740990900153	-0.0032043457	
1740990900154	0.0025939941	
1740990900155	-1.5258789E-4	
1740990900156	-0.0077819824	
1740990900157	-0.010375977	
1740990900158	-0.008163452	
1740990900159	-1.5258789E-4	
1740990900160	0.00289917	
1740990900161	0.0017547607	
1740990900162	0.00289917	
1740990900163	0.0062561035	
1740990900164	0.010299683	
1740990900165	0.0048065186	
1740990900166	-0.0038909912	
1740990900167	-0.0018310547	
1740990900168	-0.0012207031	
1740990900169	1.5258789E-4	
1740990900170	0.0050354004	
1740990900171	0.0032043457	
1740990900172	0.0061798096	
1740990900173	0.004425049	
1740990900174	-0.0025939941	
1740990900175	-0.0035858154	
1740990900176	-0.008621216	
1740990900177	-0.005722046	
1740990900178	-0.0025177002	
1740990900179	-0.0010681152	
1740990900180	0.001449585	
1740990900181	-0.0050354004	
1740990900182	-0.0019073486	
1740990900183	-2.2888184E-4	
1740990900184	-0.0048065186	
1740990900185	0.004348755	
1740990900186	0.00579834	
1740990900187	-9.1552734E-4	
1740990900188	-0.0010681152	
1740990900189	0.0023651123	
1740990900190	0.01159668	
1740990900191	0.008010864	
1740990900192	-0.0032043457	
1740990900193	0.0031280518	
1740990900194	0.009231567	
1740990900195	0.007019043	
1740990900196	-0.0029754639	
1740990900197	-0.01159668	
1740990900198	-0.010528564	
1740990900199	-0.010604858	
1740990900200	-0.006790161	
1740990900201	-9.1552734E-4	
1740990900202	0.0025177002	
1740990900203	-8.392334E-4	
1740990900204	-0.0077819824	
1740990900205	-0.0010681152	
1740990900206	0.004501343	
1740990900207	0.0049591064	
1740990900208	0.005493164	
1740990900209	4.5776367E-4	
1740990900210	0.0010681152	
1740990900211	0.0035858154	
1740990900212	0.008010864	
1740990900213	0.005493164	
1740990900214	-0.0035095215	
1740990900215	0.0010681152	
1740990900216	0.0035858154	
1740990900217	0.0022888184	
1740990900218	0.0032043457	
1740990900219	-0.0023651123	
1740990900220	-0.0032806396	
1740990900221	8.392334E-4	
1740990900222	-0.001373291	
1740990900223	-0.0076293945	
1740990900224	-0.0066375732	
1740990900225	-0.002822876	
1740990900226	-0.0051116943	
1740990900227	-3.8146973E-4	
1740990900228	0.005264282	
1740990900229	-0.0033569336	
1740990900230	-0.0051879883	
1740990900231	0.005874634	
1740990900232	0.005340576	
1740990900233	7.6293945E-5	
1740990900234	6.866455E-4	
1740990900235	-0.0018310547	
1740990900236	-6.1035156E-4	
1740990900237	0.0017547607	
1740990900238	-0.0025177002	
1740990900239	-2.2888184E-4	
1740990900240	0.0037384033	
1740990900241	-6.866455E-4	
1740990900242	-0.0033569336	
1740990900243	-7.6293945E-4	
1740990900244	-0.0017547607	
1740990900245	-0.0033569336	
1740990900246	-9.1552734E-4	
1740990900247	-0.0030517578	
1740990900248	0.0016784668	
1740990900249	0.0064849854	
1740990900250	0.0032043457	
1740990900251	0.0073242188	
1740990900252	0.006790161	
1740990900253	0.0045776367	
1740990900254	0.0022888184	
1740990900255	-0.0023651123	
1740990900256	-0.0015258789	
1740990900257	-0.0045776367	
1740990900258	-0.006942749	
1740990900259	-0.010528564	
1740990900260	-0.011749268	
1740990900261	0.002822876	
1740990900262	0.019454956	
1740990900263	0.018157959	
1740990900264	0.005645752	
1740990900265	-0.0063323975	
1740990900266	-0.016937256	
1740990900267	0.0031280518	
1740990900268	0.008544922	
1740990900269	-0.01777649	
1740990900270	-0.0036621094	
1740990900271	-0.002822876	
1740990900272	-0.0077056885	
1740990900273	0.013504028	
1740990900274	0.008544922	
1740990900275	-3.8146973E-4	
1740990900276	-0.010223389	
1740990900277	-0.0065612793	
1740990900278	-8.392334E-4	
1740990900279	-0.009841919	
1740990900280	-7.6293945E-4	
1740990900281	0.001449585	
1740990900282	-0.0012969971	
1740990900283	0.0021362305	
1740990900284	0.0045776367	
1740990900285	0.009841919	
1740990900286	0.009613037	
1740990900287	0.007171631	
1740990900288	0.004043579	
1740990900289	0.002822876	
1740990900290	0.004119873	
1740990900291	0.0032806396	
1740990900292	-1.5258789E-4	
1740990900293	-0.0033569336	
1740990900294	-8.392334E-4	
1740990900295	-8.392334E-4	
1740990900296	-0.0019836426	
1740990900297	-0.0046539307	
1740990900298	-0.009918213	
1740990900299	-0.004348755	
1740990900300	0.0017547607	
1740990900301	9.1552734E-4	
1740990900302	7.6293945E-5	
1740990900303	-0.0037384033	
1740990900304	-0.0017547607	
1740990900305	0.0077056885	
1740990900306	0.0022125244	
1740990900307	-0.005874634	
1740990900308	-0.00289917	
1740990900309	-0.0033569336	
1740990900310	-0.005722046	
1740990900311	-0.0059509277	
1740990900312	-0.0035095215	
1740990900313	-0.0019836426	
1740990900314	-0.0017547607	
1740990900315	0.0016784668	
1740990900316	-0.001373291	
1740990900317	-0.0023651123	
1740990900318	9.1552734E-4	
1740990900319	-0.001449585	
1740990900320	0.0015258789	
1740990900321	0.005874634	
1740990900322	0.0051879883	
1740990900323	0.0062561035	
1740990900324	0.009231567	
1740990900325	0.0048828125	
1740990900326	9.1552734E-4	
1740990900327	0.0047302246	
1740990900328	0.0034332275	
1740990900329	0.0036621094	
1740990900330	0.004119873	
1740990900331	5.340576E-4	
1740990900332	0.0030517578	
1740990900333	0.0018310547	
1740990900334	-0.0038909912	
1740990900335	-0.0051116943	
1740990900336	-0.005264282	
1740990900337	-0.0034332275	
1740990900338	0.0	
1740990900339	-0.0016021729	
1740990900340	-0.008010864	
1740990900341	-0.004043579	
1740990900342	0.0030517578	
1740990900343	-0.0015258789	
1740990900344	0.0025177002	
1740990900345	0.005569458	
1740990900346	-0.0034332275	
1740990900347	-0.001449585	
1740990900348	8.392334E-4	
1740990900349	-0.0022888184	
1740990900350	9.1552734E-4	
1740990900351	0.0011444092	
1740990900352	-0.0023651123	
1740990900353	-0.0038909912	
1740990900354	-0.0025177002	
1740990900355	0.002822876	
1740990900356	0.001449585	
1740990900357	-0.001373291	
1740990900358	-4.5776367E-4	
1740990900359	-0.0017547607	
1740990900360	0.0	
1740990900361	0.0016021729	
1740990900362	8.392334E-4	
1740990900363	-0.0032806396	
1740990900364	-0.0022125244	
1740990900365	0.0012969971	
1740990900366	0.001373291	
1740990900367	0.0049591064	
1740990900368	-7.6293945E-5	
1740990900369	-0.0016784668	
1740990900370	0.0	
1740990900371	-0.0033569336	
1740990900372	0.0018310547	
1740990900373	0.0020599365	
1740990900374	-0.004043579	
1740990900375	-0.00289917	
1740990900376	0.0011444092	
1740990900377	0.0020599365	
1740990900378	0.00541687	
1740990900379	0.008239746	
1740990900380	0.007019043	
1740990900381	-2.2888184E-4	
1740990900382	-0.005493164	
1740990900383	0.0022888184	
1740990900384	0.001373291	
1740990900385	-0.003967285	
1740990900386	6.1035156E-4	
1740990900387	-0.0025939941	
1740990900388	-0.0074005127	
1740990900389	-0.007019043	
1740990900390	-0.0059509277	
1740990900391	-0.0035858154	
1740990900392	-0.0012207031	
1740990900393	0.0059509277	
1740990900394	0.006866455	
1740990900395	2.2888184E-4	
1740990900396	-0.0025177002	
1740990900397	-0.0063323975	
1740990900398	-0.013122559	
1740990900399	-0.010223389	
1740990900400	6.1035156E-4	
1740990900401	0.007171631	
1740990900402	0.014190674	
1740990900403	0.019836426	
1740990900404	0.0012207031	
1740990900405	-0.0066375732	
1740990900406	0.009536743	
1740990900407	0.004501343	
1740990900408	-0.012359619	
1740990900409	-0.011444092	
1740990900410	0.005874634	
1740990900411	0.012817383	
1740990900412	-0.0064086914	
1740990900413	-0.0119018555	
1740990900414	0.008468628	
1740990900415	0.025253296	
1740990900416	0.0390625	
1740990900417	0.032577515	
1740990900418	0.0061035156	
1740990900419	-0.010604858	
1740990900420	-0.025482178	
1740990900421	-0.038757324	
1740990900422	-0.032043457	
1740990900423	-0.022964478	
1740990900424	-0.02609253	
1740990900425	-0.008010864	
1740990900426	0.02532959	
1740990900427	0.030441284	
1740990900428	0.015029907	
1740990900429	-0.012741089	
1740990900430	-0.028305054	
1740990900431	-0.012512207	
1740990900432	-0.0016784668	
1740990900433	-0.0015258789	
1740990900434	0.0018310547	
1740990900435	0.0047302246	
1740990900436	0.012817383	
1740990900437	0.024642944	
1740990900438	0.013809204	
1740990900439	-0.0075531006	
1740990900440	-0.011444092	
1740990900441	-0.0019073486	
1740990900442	0.015716553	
1740990900443	0.020217896	
1740990900444	0.004196167	
1740990900445	-0.00579834	
1740990900446	0.013809204	
1740990900447	0.015563965	
1740990900448	-0.018539429	
1740990900449	-0.020980835	
1740990900450	-0.0023651123	
1740990900451	-0.0022125244	
1740990900452	-0.0038146973	
1740990900453	0.001449585	
1740990900454	0.0032043457	
1740990900455	-0.0025177002	
1740990900456	-0.009689331	
1740990900457	-0.004501343	
1740990900458	-0.0050354004	
1740990900459	-0.019836426	
1740990900460	-0.0090789795	
1740990900461	0.022125244	
1740990900462	0.039978027	
1740990900463	0.03112793	
1740990900464	0.013885498	
1740990900465	0.013656616	
1740990900466	0.01953125	
1740990900467	-0.0012207031	
1740990900468	-0.0756073	
1740990900469	-0.08911133	
1740990900470	0.0031280518	
1740990900471	0.014266968	
1740990900472	-0.01411438	
1740990900473	0.01449585	
1740990900474	0.015640259	
1740990900475	0.0132751465	
1740990900476	0.003967285	
1740990900477	-0.009002686	
1740990900478	0.0048065186	
1740990900479	-4.5776367E-4	
1740990900480	-0.0063323975	
1740990900481	4.5776367E-4	
1740990900482	0.009384155	
1740990900483	0.015563965	
1740990900484	0.00289917	
1740990900485	0.0012969971	
1740990900486	0.008544922	
1740990900487	0.0033569336	
1740990900488	-3.0517578E-4	
1740990900489	0.0064849854	
1740990900490	0.012435913	
1740990900491	0.0063323975	
1740990900492	0.0019836426	
1740990900493	-0.009918213	
1740990900494	-0.022354126	
1740990900495	-0.011978149	
1740990900496	-0.0036621094	
1740990900497	-0.0060272217	
1740990900498	-0.004425049	
1740990900499	-0.004043579	
1740990900500	-0.0038146973	
1740990900501	3.0517578E-4	
1740990900502	0.004272461	
1740990900503	0.004272461	
1740990900504	0.0062561035	
1740990900505	0.004119873	
1740990900506	6.1035156E-4	
1740990900507	0.0035095215	
1740990900508	0.0012207031	
1740990900509	6.866455E-4	
1740990900510	-0.0018310547	
1740990900511	-0.0012207031	
1740990900512	0.0060272217	
1740990900513	0.0031280518	
1740990900514	0.002822876	
1740990900515	0.0061798096	
1740990900516	0.0036621094	
1740990900517	-0.0029754639	
1740990900518	-0.0048065186	
1740990900519	0.004119873	
1740990900520	0.0076293945	
1740990900521	6.866455E-4	
1740990900522	-0.0064849854	
1740990900523	-0.0073242188	
1740990900524	-0.008239746	
1740990900525	-0.008850098	
1740990900526	-0.004272461	
1740990900527	-7.6293945E-4	
1740990900528	0.0024414062	
1740990900529	0.0048828125	
1740990900530	4.5776367E-4	
1740990900531	-0.0062561035	
1740990900532	-0.0025939941	
1740990900533	0.005645752	
1740990900534	0.005493164	
1740990900535	0.0038146973	
1740990900536	-0.004119873	
1740990900537	-0.0048065186	
1740990900538	0.0045776367	
1740990900539	-9.1552734E-4	
1740990900540	0.0035858154	
1740990900541	0.008850098	
1740990900542	0.0022125244	
1740990900543	0.0048065186	
1740990900544	9.1552734E-4	
1740990900545	-0.0030517578	
1740990900546	-0.0063323975	
1740990900547	-0.007095337	
1740990900548	9.1552734E-4	
1740990900549	0.004043579	
1740990900550	0.009689331	
1740990900551	0.0045776367	
1740990900552	-0.0034332275	
1740990900553	-0.0032043457	
1740990900554	-0.011749268	
1740990900555	-7.6293945E-4	
1740990900556	0.016479492	
1740990900557	0.015640259	
1740990900558	0.013656616	
1740990900559	-0.0034332275	
1740990900560	-0.010757446	
1740990900561	-0.005645752	
1740990900562	-0.013885498	
1740990900563	-0.011672974	
1740990900564	-0.0074005127	
1740990900565	-0.0074005127	
1740990900566	0.002670288	
1740990900567	0.008087158	
1740990900568	0.001449585	
1740990900569	-0.0076293945	
1740990900570	-0.007019043	
1740990900571	-0.009384155	
1740990900572	-0.019226074	
1740990900573	-0.01739502	
1740990900574	-0.011444092	
1740990900575	-0.0016784668	
1740990900576	0.013656616	
1740990900577	0.017700195	
1740990900578	0.017089844	
1740990900579	0.013656616	
1740990900580	0.010375977	
1740990900581	0.012969971	
1740990900582	0.012435913	
1740990900583	0.007858276	
1740990900584	0.0011444092	
1740990900585	-0.006790161	
1740990900586	-0.007858276	
1740990900587	-0.0029754639	
1740990900588	0.0024414062	
1740990900589	0.0025177002	
1740990900590	-0.01083374	
1740990900591	-0.016784668	
1740990900592	-0.013427734	
1740990900593	-0.012512207	
1740990900594	-7.6293945E-5	
1740990900595	0.014572144	
1740990900596	0.020980835	
1740990900597	0.021362305	
1740990900598	0.014801025	
1740990900599	0.0018310547	
1740990900600	-0.0045776367	
1740990900601	-0.0012207031	
1740990900602	-6.1035156E-4	
1740990900603	0.0018310547	
1740990900604	0.0018310547	
1740990900605	-9.1552734E-4	
1740990900606	-0.0032806396	
1740990900607	-0.00869751	
1740990900608	-0.012741089	
1740990900609	-0.009231567	
1740990900610	-0.005645752	
1740990900611	-0.005874634	
1740990900612	-0.0019836426	
1740990900613	-0.007247925	
1740990900614	-0.011749268	
1740990900615	-0.0022888184	
1740990900616	-0.001449585	
1740990900617	-2.2888184E-4	
1740990900618	0.004501343	
1740990900619	-5.340576E-4	
1740990900620	3.8146973E-4	
1740990900621	0.0025177002	
1740990900622	-0.0017547607	
1740990900623	-3.0517578E-4	
1740990900624	0.0036621094	
1740990900625	0.004272461	
1740990900626	0.0051879883	
1740990900627	0.0017547607	
1740990900628	-0.0036621094	
1740990900629	-6.866455E-4	
1740990900630	0.005340576	
1740990900631	0.0076293945	
1740990900632	0.010299683	
1740990900633	0.0063323975	
1740990900634	-0.0021362305	
1740990900635	0.001373291	
1740990900636	0.0061035156	
1740990900637	0.004196167	
1740990900638	0.008544922	
1740990900639	0.015716553	
1740990900640	0.012283325	
1740990900641	0.0046539307	
1740990900642	0.009384155	
1740990900643	0.015411377	
1740990900644	0.012512207	
1740990900645	0.009460449	
1740990900646	0.009765625	
1740990900647	-7.6293945E-5	
1740990900648	-0.005569458	
1740990900649	-0.004043579	
1740990900650	-0.0076293945	
1740990900651	-0.009307861	
1740990900652	-0.017623901	
1740990900653	-0.01991272	
1740990900654	-0.018234253	
1740990900655	-0.019607544	
1740990900656	-0.014801025	
1740990900657	-0.015411377	
1740990900658	-0.013961792	
1740990900659	-0.010223389	
1740990900660	-0.011520386	
1740990900661	-0.011672974	
1740990900662	-0.01335144	
1740990900663	-0.01449585	
1740990900664	-0.009460449	
1740990900665	-0.007095337	
1740990900666	-0.00831604	
1740990900667	-0.0034332275	
1740990900668	0.0035858154	
1740990900669	0.0025939941	
1740990900670	0.0020599365	
1740990900671	0.006713867	
1740990900672	0.0132751465	
1740990900673	0.0146484375	
1740990900674	0.0076293945	
1740990900675	0.0063323975	
1740990900676	0.012130737	
1740990900677	0.012664795	
1740990900678	0.012207031	
1740990900679	0.014572144	
1740990900680	0.01625061	
1740990900681	0.012664795	
1740990900682	0.014190674	
1740990900683	0.01701355	
1740990900684	0.010757446	
1740990900685	0.0074768066	
1740990900686	0.009994507	
1740990900687	0.008087158	
1740990900688	0.007171631	
1740990900689	0.0064086914	
1740990900690	-0.0021362305	
1740990900691	-0.0036621094	
1740990900692	0.001373291	
1740990900693	-0.0016784668	
1740990900694	-0.0073242188	
1740990900695	-0.0038909912	
1740990900696	-0.0021362305	
1740990900697	-0.0066375732	
1740990900698	-0.010986328	
1740990900699	-0.007171631	
1740990900700	-0.0048065186	
1740990900701	-0.0118255615	
1740990900702	-0.005874634	
1740990900703	-0.0066375732	
1740990900704	-0.011367798	
1740990900705	-0.008544922	
1740990900706	-0.0104522705	
1740990900707	-0.006942749	
1740990900708	2.2888184E-4	
1740990900709	0.002822876	
1740990900710	-0.0032043457	
1740990900711	-0.0051879883	
1740990900712	0.0050354004	
1740990900713	0.0060272217	
1740990900714	0.0051879883	
1740990900715	0.0073242188	
1740990900716	-7.6293945E-4	
1740990900717	-0.012435913	
1740990900718	-0.015945435	
1740990900719	-0.013504028	
1740990900720	-0.016021729	
1740990900721	-0.018615723	
1740990900722	-0.010147095	
1740990900723	-0.007171631	
1740990900724	-0.00793457	
1740990900725	0.0051116943	
1740990900726	0.004196167	
1740990900727	0.008926392	
1740990900728	0.01838684	
1740990900729	0.012893677	
1740990900730	0.020523071	
1740990900731	0.018920898	
1740990900732	0.015792847	
1740990900733	0.014266968	
1740990900734	0.009536743	
1740990900735	0.0132751465	
1740990900736	0.011978149	
1740990900737	0.015182495	
1740990900738	0.014877319	
1740990900739	0.0076293945	
1740990900740	0.0030517578	
1740990900741	-0.0062561035	
1740990900742	-0.00289917	
1740990900743	0.0016784668	
1740990900744	-0.009384155	
1740990900745	-0.005722046	
1740990900746	-7.6293945E-4	
1740990900747	-0.0022888184	
1740990900748	-0.0077819824	
1740990900749	-0.012054443	
1740990900750	-0.011520386	
1740990900751	-0.015182495	
1740990900752	-0.009231567	
1740990900753	-0.004272461	
1740990900754	-0.0104522705	
1740990900755	-0.0074768066	
1740990900756	-0.0016784668	
1740990900757	0.0017547607	
1740990900758	6.1035156E-4	
1740990900759	0.0022888184	
1740990900760	-0.0012969971	
1740990900761	-0.004501343	
1740990900762	-0.004119873	
1740990900763	-0.008621216	
1740990900764	-0.010299683	
1740990900765	-0.014419556	
1740990900766	-0.011138916	
1740990900767	-0.005722046	
1740990900768	-0.011291504	
1740990900769	-0.0038909912	
1740990900770	-0.008468628	
1740990900771	-0.005874634	
1740990900772	0.0047302246	
1740990900773	0.00579834	
1740990900774	0.018081665	
1740990900775	0.013961792	
1740990900776	0.012054443	
1740990900777	0.022888184	
1740990900778	0.021743774	
1740990900779	0.025100708	
1740990900780	0.020599365	
1740990900781	0.015487671	
1740990900782	0.015182495	
1740990900783	0.010681152	
1740990900784	0.018463135	
1740990900785	0.011672974	
1740990900786	0.0038909912	
1740990900787	0.0061035156	
1740990900788	-0.0051879883	
1740990900789	-0.004272461	
1740990900790	-0.00831604	
1740990900791	-0.013198853	
1740990900792	-0.012664795	
1740990900793	-0.017471313	
1740990900794	-0.013504028	
1740990900795	-0.015792847	
1740990900796	-0.016021729	
1740990900797	-0.012359619	
1740990900798	-0.012664795	
1740990900799	-0.011978149	
1740990900800	-0.014877319	
1740990900801	-0.014038086	
1740990900802	-0.0104522705	
1740990900803	-0.008010864	
1740990900804	-0.007171631	
1740990900805	-0.0038146973	
1740990900806	-6.1035156E-4	
1740990900807	-0.0012207031	
1740990900808	0.002746582	
1740990900809	0.006942749	
1740990900810	0.012664795	
1740990900811	0.011138916	
1740990900812	0.009002686	
1740990900813	0.017700195	
1740990900814	0.013046265	
1740990900815	0.00869751	
1740990900816	0.014877319	
1740990900817	0.013656616	
1740990900818	0.008850098	
1740990900819	0.0066375732	
1740990900820	0.0048828125	
1740990900821	5.340576E-4	
1740990900822	-0.0030517578	
1740990900823	-0.0019836426	
1740990900824	-0.007095337	
1740990900825	-0.004119873	
1740990900826	0.0021362305	
1740990900827	-0.0017547607	
1740990900828	0.0021362305	
1740990900829	0.004119873	
1740990900830	-0.0010681152	
1740990900831	-0.004348755	
1740990900832	-0.00541687	
1740990900833	-7.6293945E-4	
1740990900834	4.5776367E-4	
1740990900835	-0.0021362305	
1740990900836	-6.866455E-4	
1740990900837	-0.0019073486	
1740990900838	-0.0049591064	
1740990900839	-0.008010864	
1740990900840	-0.011444092	
1740990900841	-0.012512207	
1740990900842	-0.016326904	
1740990900843	-0.01739502	
1740990900844	-0.015945435	
1740990900845	-0.013046265	
1740990900846	-0.005569458	
1740990900847	-0.001449585	
1740990900848	3.8146973E-4	
1740990900849	0.004425049	
1740990900850	0.0065612793	
1740990900851	0.005493164	
1740990900852	0.01777649	
1740990900853	0.018615723	
1740990900854	0.016937256	
1740990900855	0.023651123	
1740990900856	0.017242432	
1740990900857	0.016174316	
1740990900858	0.01625061	
1740990900859	0.008773804	
1740990900860	0.00579834	
1740990900861	-2.2888184E-4	
1740990900862	-0.0035858154	
1740990900863	-0.0015258789	
1740990900864	-0.0024414062	
1740990900865	-0.011978149	
1740990900866	-0.015640259	
1740990900867	-0.0051116943	
1740990900868	-0.0030517578	
1740990900869	-0.0065612793	
1740990900870	-0.0035858154	
1740990900871	-0.0031280518	
1740990900872	-0.0025177002	
1740990900873	0.0020599365	
1740990900874	0.0049591064	
1740990900875	0.00579834	
1740990900876	0.002670288	
1740990900877	-0.0025177002	
1740990900878	-0.0016021729	
1740990900879	-0.01159668	
1740990900880	-0.015258789	
1740990900881	-0.004272461	
1740990900882	-0.0077056885	
1740990900883	-0.0035858154	
1740990900884	-9.918213E-4	
1740990900885	-0.008392334	
1740990900886	-0.00289917	
1740990900887	-4.5776367E-4	
1740990900888	-0.0031280518	
1740990900889	-0.004043579	
1740990900890	-2.2888184E-4	
1740990900891	0.006713867	
1740990900892	6.866455E-4	
1740990900893	0.0022888184	
1740990900894	0.0090789795	
1740990900895	0.008010864	
1740990900896	0.0064086914	
1740990900897	-9.1552734E-4	
1740990900898	3.8146973E-4	
1740990900899	0.0032043457	
1740990900900	0.005493164	
1740990900901	0.015640259	
1740990900902	0.01411438	
1740990900903	0.002746582	
1740990900904	0.0010681152	
1740990900905	0.0030517578	
1740990900906	0.004043579	
1740990900907	0.0018310547	
1740990900908	0.0012969971	
1740990900909	0.0015258789	
1740990900910	7.6293945E-4	
1740990900911	0.004272461	
1740990900912	-0.0037384033	
1740990900913	-0.011672974	
1740990900914	-0.009002686	
1740990900915	-0.009918213	
1740990900916	-0.009460449	
1740990900917	-0.0077056885	
1740990900918	-0.009155273	
1740990900919	-0.009307861	
1740990900920	-0.005264282	
1740990900921	-0.0064849854	
1740990900922	-0.0024414062	
1740990900923	0.0060272217	
1740990900924	9.1552734E-4	
1740990900925	0.005340576	
1740990900926	0.01083374	
1740990900927	0.004425049	
1740990900928	0.011520386	
1740990900929	0.008163452	
1740990900930	-0.0064849854	
1740990900931	-0.0024414062	
1740990900932	0.007247925	
1740990900933	0.012130737	
1740990900934	0.006713867	
1740990900935	0.0037384033	
1740990900936	0.0	
1740990900937	-0.01159668	
1740990900938	-0.004425049	
1740990900939	0.0064086914	
1740990900940	0.0075531006	
1740990900941	0.0061798096	
1740990900942	-0.0022888184	
1740990900943	7.6293945E-4	
1740990900944	0.00289917	
1740990900945	-0.0047302246	
1740990900946	-1.5258789E-4	
1740990900947	-0.002822876	
1740990900948	-0.009613037	
1740990900949	-1.5258789E-4	
1740990900950	0.0017547607	
1740990900951	-0.005340576	
1740990900952	-0.0012969971	
1740990900953	-0.0033569336	
1740990900954	-0.005722046	
1740990900955	-0.009841919	
1740990900956	-0.012741089	
1740990900957	-0.008926392	
1740990900958	-0.008850098	
1740990900959	-0.008468628	
1740990900960	-0.0063323975	
1740990900961	-0.0046539307	
1740990900962	-0.015258789	
1740990900963	-0.040283203	
1740990900964	-0.041503906	
1740990900965	-0.027618408	
1740990900966	-0.006713867	
1740990900967	0.021591187	
1740990900968	0.026245117	
1740990900969	0.021057129	
1740990900970	0.029449463	
1740990900971	0.059280396	
1740990900972	0.08560181	
1740990900973	0.057678223	
1740990900974	0.02822876	
1740990900975	0.03593445	
1740990900976	-0.03173828	
1740990900977	-0.1412201	
1740990900978	-0.10154724	
1740990900979	0.017547607	
1740990900980	0.015640259	
1740990900981	0.01876831	
1740990900982	0.06477356	
1740990900983	0.04219055	
1740990900984	0.03364563	
1740990900985	0.025558472	
1740990900986	0.01663208	
1740990900987	0.017089844	
1740990900988	-0.0019073486	
1740990900989	-0.004119873	
1740990900990	-0.004501343	
1740990900991	-0.0020599365	
1740990900992	0.001373291	
1740990900993	-0.009155273	
1740990900994	-0.011291504	
1740990900995	-0.013656616	
1740990900996	-0.020370483	
1740990900997	-0.020904541	
1740990900998	-0.027923584	
1740990900999	-0.03616333	
1740990901000	-0.034713745	
1740990901001	-0.026473999	
1740990901002	-0.017700195	
1740990901003	-0.018920898	
1740990901004	-0.020217896	
1740990901005	-0.013656616	
1740990901006	-0.012741089	
1740990901007	-0.012435913	
1740990901008	-0.008468628	
1740990901009	-0.0038909912	
1740990901010	0.005264282	
1740990901011	0.011749268	
1740990901012	0.013046265	
1740990901013	0.011367798	
1740990901014	0.007858276	
1740990901015	0.008773804	
1740990901016	0.015335083	
1740990901017	0.020065308	
1740990901018	0.02456665	
1740990901019	0.02960205	
1740990901020	0.031661987	
1740990901021	0.034103394	
1740990901022	0.034332275	
1740990901023	0.032806396	
1740990901024	0.025177002	
1740990901025	0.018310547	
1740990901026	0.0118255615	
1740990901027	-0.0016784668	
1740990901028	-0.011138916	
1740990901029	-0.01777649	
1740990901030	-0.023651123	
1740990901031	-0.024795532	
1740990901032	-0.021972656	
1740990901033	-0.02067566	
1740990901034	-0.014953613	
1740990901035	-0.012054443	
1740990901036	-0.023956299	
1740990901037	-0.024642944	
1740990901038	-0.008773804	
1740990901039	0.002670288	
1740990901040	0.01586914	
1740990901041	0.014877319	
1740990901042	-0.002670288	
1740990901043	-0.0032806396	
1740990901044	-0.0020599365	
1740990901045	-0.011749268	
1740990901046	-0.012130737	
1740990901047	-0.005264282	
1740990901048	0.0030517578	
1740990901049	3.0517578E-4	
1740990901050	-0.0035095215	
1740990901051	0.004425049	
1740990901052	0.0036621094	
1740990901053	0.0015258789	
1740990901054	-0.006790161	
1740990901055	-0.013809204	
1740990901056	-0.0062561035	
1740990901057	-0.0077819824	
1740990901058	-0.007171631	
1740990901059	-8.392334E-4	
1740990901060	0.009231567	
1740990901061	0.022888184	
1740990901062	0.018310547	
1740990901063	0.012359619	
1740990901064	0.009307861	
1740990901065	0.0060272217	
1740990901066	0.004196167	
1740990901067	8.392334E-4	
1740990901068	0.007247925	
1740990901069	0.0064849854	
1740990901070	0.0060272217	
1740990901071	0.0146484375	
1740990901072	0.009536743	
1740990901073	0.0016784668	
1740990901074	0.0025939941	
1740990901075	0.0017547607	
1740990901076	0.008010864	
1740990901077	0.02128601	
1740990901078	0.013122559	
1740990901079	-0.009231567	
1740990901080	-0.011138916	
1740990901081	-0.004196167	
1740990901082	-0.006942749	
1740990901083	-0.007247925	
1740990901084	-0.01335144	
1740990901085	-0.024795532	
1740990901086	-0.025634766	
1740990901087	-0.011367798	
1740990901088	-0.011672974	
1740990901089	-0.038757324	
1740990901090	-0.048828125	
1740990901091	-0.037002563	
1740990901092	-0.027770996	
1740990901093	-0.018310547	
1740990901094	-9.1552734E-4	
1740990901095	0.004272461	
1740990901096	0.007247925	
1740990901097	0.024261475	
1740990901098	0.026855469	
1740990901099	0.027236938	
1740990901100	0.038757324	
1740990901101	0.036315918	
1740990901102	0.03288269	
1740990901103	0.027923584	
1740990901104	0.01121521	
1740990901105	0.015029907	
1740990901106	0.025558472	
1740990901107	0.026321411	
1740990901108	0.032424927	
1740990901109	0.028533936	
1740990901110	0.013809204	
1740990901111	0.0025939941	
1740990901112	-0.0037384033	
1740990901113	-0.0090789795	
1740990901114	-0.02128601	
1740990901115	-0.025787354	
1740990901116	-0.027770996	
1740990901117	-0.03540039	
1740990901118	-0.029296875	
1740990901119	-0.015487671	
1740990901120	-0.013961792	
1740990901121	-0.019378662	
1740990901122	-0.012969971	
1740990901123	-0.008239746	
1740990901124	-0.012969971	
1740990901125	-0.015106201	
1740990901126	-0.024261475	
1740990901127	-0.026550293	
1740990901128	-0.017700195	
1740990901129	-0.014419556	
1740990901130	-0.006942749	
1740990901131	-0.0031280518	
1740990901132	0.0017547607	
1740990901133	0.020446777	
1740990901134	0.0289917	
1740990901135	0.02609253	
1740990901136	0.024719238	
1740990901137	0.01777649	
1740990901138	0.017929077	
1740990901139	0.011367798	
1740990901140	-0.0017547607	
1740990901141	-5.340576E-4	
1740990901142	0.0048065186	
1740990901143	0.015792847	
1740990901144	0.009002686	
1740990901145	-0.018310547	
1740990901146	-0.016937256	
1740990901147	0.012359619	
1740990901148	0.023880005	
1740990901149	0.011978149	
1740990901150	0.018463135	
1740990901151	0.023651123	
1740990901152	-7.6293945E-5	
1740990901153	-0.0064086914	
1740990901154	0.012512207	
1740990901155	0.015487671	
1740990901156	0.0022125244	
1740990901157	-0.0018310547	
1740990901158	-0.014343262	
1740990901159	-0.022506714	
1740990901160	-0.016098022	
1740990901161	-0.017547607	
1740990901162	-0.01838684	
1740990901163	-0.016098022	
1740990901164	-0.019454956	
1740990901165	-0.02204895	
1740990901166	-0.00831604	
1740990901167	6.866455E-4	
1740990901168	-0.0012207031	
1740990901169	0.008926392	
1740990901170	0.016860962	
1740990901171	0.015182495	
1740990901172	0.023345947	
1740990901173	0.0075531006	
1740990901174	-0.008010864	
1740990901175	-0.012969971	
1740990901176	-0.0146484375	
1740990901177	0.0048065186	
1740990901178	0.0062561035	
1740990901179	-0.0037384033	
1740990901180	-0.0020599365	
1740990901181	0.0016784668	
1740990901182	0.0015258789	
1740990901183	-0.005722046	
1740990901184	6.866455E-4	
1740990901185	0.004501343	
1740990901186	-0.013961792	
1740990901187	-0.021743774	
1740990901188	-0.020065308	
1740990901189	-0.016098022	
1740990901190	-0.0065612793	
1740990901191	-0.004348755	
1740990901192	-0.0032043457	
1740990901193	6.866455E-4	
1740990901194	0.0047302246	
1740990901195	0.008544922	
1740990901196	0.009918213	
1740990901197	0.010986328	
1740990901198	0.015563965	
1740990901199	0.023422241	
1740990901200	0.02670288	
1740990901201	0.031585693	
1740990901202	0.03616333	
1740990901203	0.024337769	
1740990901204	0.011062622	
1740990901205	0.0048065186	
1740990901206	-0.007171631	
1740990901207	-0.01083374	
1740990901208	-0.0016784668	
1740990901209	-0.006942749	
1740990901210	-0.016021729	
1740990901211	-0.019683838	
1740990901212	-0.01739502	
1740990901213	-0.010375977	
1740990901214	-0.012130737	
1740990901215	-0.0076293945	
1740990901216	-6.1035156E-4	
1740990901217	-0.004196167	
1740990901218	-0.011978149	
1740990901219	-0.01663208	
1740990901220	-0.010375977	
1740990901221	-0.0032806396	
1740990901222	-0.0029754639	
1740990901223	-0.008392334	
1740990901224	-0.018081665	
1740990901225	-0.014266968	
1740990901226	0.001449585	
1740990901227	0.0038909912	
1740990901228	0.0048065186	
1740990901229	0.012741089	
1740990901230	0.016326904	
1740990901231	0.014038086	
1740990901232	0.010528564	
1740990901233	0.01083374	
1740990901234	-0.0059509277	
1740990901235	-0.019836426	
1740990901236	-0.0020599365	
1740990901237	0.023040771	
1740990901238	0.018615723	
1740990901239	-0.008087158	
1740990901240	-0.007171631	
1740990901241	0.0022888184	
1740990901242	0.017166138	
1740990901243	0.029830933	
1740990901244	0.00541687	
1740990901245	0.0018310547	
1740990901246	0.008163452	
1740990901247	-0.005340576	
1740990901248	-0.01335144	
1740990901249	-0.01838684	
1740990901250	-0.004043579	
1740990901251	0.0064849854	
1740990901252	-0.0030517578	
1740990901253	-0.0074005127	
1740990901254	-0.010604858	
1740990901255	-0.007019043	
1740990901256	-7.6293945E-4	
1740990901257	-0.0051116943	
1740990901258	-0.0022125244	
1740990901259	0.010528564	
1740990901260	0.010070801	
1740990901261	0.00793457	
1740990901262	0.012359619	
1740990901263	0.0010681152	
1740990901264	-0.007247925	
1740990901265	0.0012207031	
1740990901266	0.0073242188	
1740990901267	0.011291504	
1740990901268	0.0010681152	
1740990901269	-0.015258789	
1740990901270	-0.009384155	
1740990901271	-0.0025177002	
1740990901272	-0.008392334	
1740990901273	-0.021057129	
1740990901274	-0.026550293	
1740990901275	-0.0104522705	
1740990901276	-0.009231567	
1740990901277	-0.018692017	
1740990901278	-0.005493164	
1740990901279	-0.0016784668	
1740990901280	-0.0045776367	
1740990901281	0.0030517578	
1740990901282	0.004119873	
1740990901283	0.0074005127	
1740990901284	0.011291504	
1740990901285	0.015487671	
1740990901286	0.020599365	
1740990901287	0.012130737	
1740990901288	0.010681152	
1740990901289	0.010910034	
1740990901290	-5.340576E-4	
1740990901291	-0.0048065186	
1740990901292	-0.007095337	
1740990901293	-0.009307861	
1740990901294	-0.0048828125	
1740990901295	0.0059509277	
1740990901296	0.016784668	
1740990901297	0.021438599	
1740990901298	0.021438599	
1740990901299	0.016555786	
1740990901300	0.013961792	
1740990901301	0.0037384033	
1740990901302	-0.010910034	
1740990901303	-0.01083374	
1740990901304	-0.012893677	
1740990901305	-0.018234253	
1740990901306	-0.021057129	
1740990901307	-0.026397705	
1740990901308	-0.025405884	
1740990901309	-0.01335144	
1740990901310	-0.004043579	
1740990901311	0.0025177002	
1740990901312	0.009384155	
1740990901313	0.006713867	
1740990901314	0.005569458	
1740990901315	0.005264282	
1740990901316	0.0032043457	
1740990901317	0.007171631	
1740990901318	0.013885498	
1740990901319	0.013961792	
1740990901320	0.006942749	
1740990901321	0.004425049	
1740990901322	0.0077056885	
1740990901323	0.008544922	
1740990901324	0.006866455	
1740990901325	0.0061035156	
1740990901326	0.0038146973	
1740990901327	-9.918213E-4	
1740990901328	-0.0060272217	
1740990901329	-0.005493164	
1740990901330	-0.005493164	
1740990901331	-0.012588501	
1740990901332	-0.008926392	
1740990901333	0.0074768066	
1740990901334	0.006866455	
1740990901335	-0.011672974	
1740990901336	-0.02418518	
1740990901337	-0.02067566	
1740990901338	-0.012435913	
1740990901339	-0.00793457	
1740990901340	0.0030517578	
1740990901341	3.8146973E-4	
1740990901342	-0.017166138	
1740990901343	-0.010910034	
1740990901344	0.01335144	
1740990901345	0.013046265	
1740990901346	-0.01121521	
1740990901347	-0.01586914	
1740990901348	-0.0032043457	
1740990901349	0.016937256	
1740990901350	0.033493042	
1740990901351	0.029754639	
1740990901352	0.022964478	
1740990901353	0.012893677	
1740990901354	-0.0032806396	
1740990901355	0.006713867	
1740990901356	0.015258789	
1740990901357	0.0022125244	
1740990901358	0.017089844	
1740990901359	0.027008057	
1740990901360	-0.013580322	
1740990901361	-0.069732666	
1740990901362	-0.09605408	
1740990901363	-0.035247803	
1740990901364	0.03791809	
1740990901365	0.03883362	
1740990901366	0.05027771	
1740990901367	0.0390625	
1740990901368	-0.023269653	
1740990901369	-0.036849976	
1740990901370	-0.02708435	
1740990901371	-0.009765625	
1740990901372	0.039520264	
1740990901373	0.04966736	
1740990901374	-7.6293945E-5	
1740990901375	-0.031280518	
1740990901376	-0.030899048	
1740990901377	-0.04043579	
1740990901378	-0.036010742	
1740990901379	-0.013427734	
1740990901380	-0.0038909912	
1740990901381	0.01449585	
1740990901382	0.031585693	
1740990901383	0.025405884	
1740990901384	0.021057129	
1740990901385	0.021133423	
1740990901386	0.0119018555	
1740990901387	-0.010986328	
1740990901388	-0.039520264	
1740990901389	-0.03265381	
1740990901390	0.009613037	
1740990901391	0.024490356	
1740990901392	0.023269653	
1740990901393	0.028381348	
1740990901394	0.013198853	
1740990901395	0.004425049	
1740990901396	0.033416748	
1740990901397	0.032958984	
1740990901398	-0.021133423	
1740990901399	-0.038604736	
1740990901400	-0.01701355	
1740990901401	-0.0011444092	
1740990901402	0.013122559	
1740990901403	-0.007019043	
1740990901404	-0.03967285	
1740990901405	-0.035247803	
1740990901406	-0.03211975	
1740990901407	-0.020751953	
1740990901408	0.014572144	
1740990901409	0.026931763	
1740990901410	0.014953613	
1740990901411	-0.007019043	
1740990901412	-0.009384155	
1740990901413	0.03677368	
1740990901414	0.07987976	
1740990901415	0.06599426	
1740990901416	0.017242432	
1740990901417	-0.02494812	
1740990901418	-0.047607422	
1740990901419	-0.052719116	
1740990901420	-0.046081543	
1740990901421	-0.025177002	
1740990901422	-0.013809204	
1740990901423	-0.00831604	
1740990901424	0.023117065	
1740990901425	0.026321411	
1740990901426	0.0046539307	
1740990901427	0.004501343	
1740990901428	0.0050354004	
1740990901429	0.0074768066	
1740990901430	9.918213E-4	
1740990901431	-0.007858276	
1740990901432	-0.011291504	
1740990901433	-0.023422241	
1740990901434	-0.011749268	
1740990901435	0.009460449	
1740990901436	0.006713867	
1740990901437	9.1552734E-4	
1740990901438	-9.918213E-4	
1740990901439	-0.004348755	
1740990901440	-0.008239746	
1740990901441	-0.009918213	
1740990901442	-0.004425049	
1740990901443	0.0049591064	
1740990901444	0.006866455	
1740990901445	0.008468628	
1740990901446	0.005493164	
1740990901447	0.019760132	
1740990901448	0.068740845	
1740990901449	0.060653687	
1740990901450	-0.0059509277	
1740990901451	-0.044708252	
1740990901452	-0.05432129	
1740990901453	-0.045547485	
1740990901454	-0.0061798096	
1740990901455	0.042037964	
1740990901456	0.054779053	
1740990901457	0.033416748	
1740990901458	0.022506714	
1740990901459	0.030670166	
1740990901460	0.009536743	
1740990901461	-0.035629272	
1740990901462	-0.04272461	
1740990901463	-0.02670288	
1740990901464	-0.016708374	
1740990901465	-0.021820068	
1740990901466	-0.051498413	
1740990901467	-0.060806274	
1740990901468	-0.03173828	
1740990901469	-0.010910034	
1740990901470	-0.0119018555	
1740990901471	0.008544922	
1740990901472	0.04310608	
1740990901473	0.039901733	
1740990901474	0.02998352	
1740990901475	0.054397583	
1740990901476	0.05958557	
1740990901477	0.021133423	
1740990901478	-0.009384155	
1740990901479	-0.033569336	
1740990901480	-0.04676819	
1740990901481	-0.03189087	
1740990901482	-0.037231445	
1740990901483	-0.042266846	
1740990901484	-0.028686523	
1740990901485	-0.011444092	
1740990901486	0.03555298	
1740990901487	0.04135132	
1740990901488	-0.010528564	
1740990901489	-0.0011444092	
1740990901490	0.054473877	
1740990901491	0.06072998	
1740990901492	0.036621094	
1740990901493	0.007095337	
1740990901494	-0.018234253	
1740990901495	0.002746582	
1740990901496	0.021133423	
1740990901497	-0.009689331	
1740990901498	-0.032730103	
1740990901499	-0.017089844	
1740990901500	0.0023651123	
1740990901501	0.012130737	
1740990901502	-0.0063323975	
1740990901503	-0.025482178	
1740990901504	-0.018157959	
1740990901505	-0.026016235	
1740990901506	-0.03387451	
1740990901507	-0.038909912	
1740990901508	-0.028381348	
1740990901509	-0.0021362305	
1740990901510	-0.011444092	
1740990901511	-0.0031280518	
1740990901512	0.032577515	
1740990901513	0.0617218	
1740990901514	0.12161255	
1740990901515	0.106277466	
1740990901516	-0.038223267	
1740990901517	-0.08590698	
1740990901518	-0.0132751465	
1740990901519	0.0016021729	
1740990901520	-0.028076172	
1740990901521	-0.05317688	
1740990901522	-0.035858154	
1740990901523	0.04562378	
1740990901524	0.06828308	
1740990901525	0.01876831	
1740990901526	-0.006942749	
1740990901527	-0.015182495	
1740990901528	-0.030441284	
1740990901529	-0.026779175	
1740990901530	0.0032043457	
1740990901531	0.030899048	
1740990901532	0.03364563	
1740990901533	0.026626587	
1740990901534	-0.0073242188	
1740990901535	-0.06454468	
1740990901536	-0.055923462	
1740990901537	0.020904541	
1740990901538	0.07522583	
1740990901539	0.06500244	
1740990901540	0.009613037	
1740990901541	-0.043792725	
1740990901542	-0.06752014	
1740990901543	-0.041732788	
1740990901544	-0.0018310547	
1740990901545	-0.009460449	
1740990901546	-0.010147095	
1740990901547	0.026397705	
1740990901548	0.021362305	
1740990901549	-0.01083374	
1740990901550	-0.009841919	
1740990901551	0.0061798096	
1740990901552	0.0025939941	
1740990901553	-0.014801025	
1740990901554	-0.020599365	
1740990901555	-0.03211975	
1740990901556	-0.06843567	
1740990901557	-0.081329346	
1740990901558	-0.02861023	
1740990901559	0.052642822	
1740990901560	0.12557983	
1740990901561	0.17440796	
1740990901562	0.13572693	
1740990901563	0.0047302246	
1740990901564	-0.07293701	
1740990901565	-0.047836304	
1740990901566	-0.005493164	
1740990901567	0.022735596	
1740990901568	-0.009613037	
1740990901569	-0.079574585	
1740990901570	-0.07873535	
1740990901571	-0.006790161	
1740990901572	0.04585266	
1740990901573	0.017700195	
1740990901574	-0.018157959	
1740990901575	-0.02822876	
1740990901576	-0.055389404	
1740990901577	-0.055389404	
1740990901578	-0.013427734	
1740990901579	0.055847168	
1740990901580	0.06736755	
1740990901581	0.004425049	
1740990901582	0.0035095215	
1740990901583	0.03227234	
1740990901584	0.040283203	
1740990901585	0.06919861	
1740990901586	0.07141113	
1740990901587	-0.0019073486	
1740990901588	-0.064315796	
1740990901589	-0.062332153	
1740990901590	-0.025939941	
1740990901591	0.02281189	
1740990901592	0.02571106	
1740990901593	0.007247925	
1740990901594	-0.030136108	
1740990901595	-0.086135864	
1740990901596	-0.059890747	
1740990901597	-0.014343262	
1740990901598	-0.03173828	
1740990901599	-0.047454834	
1740990901600	-0.032196045	
1740990901601	-0.011062622	
1740990901602	0.040130615	
1740990901603	0.06896973	
1740990901604	0.01701355	
1740990901605	-0.017242432	
1740990901606	-0.010375977	
1740990901607	0.016860962	
1740990901608	0.022506714	
1740990901609	0.016479492	
1740990901610	0.07751465	
1740990901611	0.09429932	
1740990901612	0.06942749	
1740990901613	0.09384155	
1740990901614	0.12397766	
1740990901615	0.07904053	
1740990901616	-0.00869751	
1740990901617	-0.06866455	
1740990901618	-0.22987366	
1740990901619	-0.28579712	
1740990901620	-0.06034851	
1740990901621	0.009384155	
1740990901622	-0.043258667	
1740990901623	0.050735474	
1740990901624	0.14396667	
1740990901625	0.15098572	
1740990901626	0.03753662	
1740990901627	-0.119018555	
1740990901628	-0.17868042	
1740990901629	-0.1461792	
1740990901630	0.025253296	
1740990901631	0.107421875	
1740990901632	0.07728577	
1740990901633	0.17105103	
1740990901634	0.040740967	
1740990901635	-0.18295288	
1740990901636	-0.3038025	
1740990901637	-0.28030396	
1740990901638	-0.0077056885	
1740990901639	0.041885376	
1740990901640	0.0015258789	
1740990901641	0.07217407	
1740990901642	0.101242065	
1740990901643	0.12710571	
1740990901644	0.1903534	
1740990901645	0.32234192	
1740990901646	0.32203674	
1740990901647	0.2984619	
1740990901648	0.32661438	
1740990901649	0.10978699	
1740990901650	-0.1777649	
1740990901651	-0.29960632	
1740990901652	-0.38604736	
1740990901653	-0.2774048	
1740990901654	0.017318726	
1740990901655	0.037078857	
1740990901656	-0.18974304	
1740990901657	-0.4197693	
1740990901658	-0.4245758	
1740990901659	-0.03982544	
1740990901660	0.20553589	
1740990901661	0.17974854	
1740990901662	0.24642944	
1740990901663	0.21888733	
1740990901664	0.16983032	
1740990901665	0.120391846	
1740990901666	0.017471313	
1740990901667	-0.0029754639	
1740990901668	-0.07385254	
1740990901669	0.05821228	
1740990901670	0.2883911	
1740990901671	0.047683716	
1740990901672	-0.23452759	
1740990901673	-0.056610107	
1740990901674	-0.061187744	
1740990901675	-0.4132843	
1740990901676	-0.3957367	
1740990901677	-0.08392334	
1740990901678	0.1411438	
1740990901679	0.2242279	
1740990901680	-0.02029419	
1740990901681	-0.19981384	
1740990901682	0.0037384033	
1740990901683	-0.06942749	
1740990901684	-0.2494812	
1740990901685	-0.2029419	
1740990901686	-0.094451904	
1740990901687	0.27793884	
1740990901688	0.40626526	
1740990901689	0.10292053	
1740990901690	-0.11505127	
1740990901691	-0.0021362305	
1740990901692	0.27748108	
1740990901693	0.24719238	
1740990901694	0.30532837	
1740990901695	0.4031372	
1740990901696	0.28030396	
1740990901697	0.28388977	
1740990901698	0.08476257	
1740990901699	-0.2117157	
1740990901700	-0.316391	
1740990901701	-0.36643982	
1740990901702	-0.2721405	
1740990901703	-0.0982666	
1740990901704	-0.05378723	
1740990901705	-0.19340515	
1740990901706	-0.21011353	
1740990901707	6.1035156E-4	
1740990901708	0.16830444	
1740990901709	0.26275635	
1740990901710	0.1738739	
1740990901711	0.062408447	
1740990901712	0.08544922	
1740990901713	0.05744934	
1740990901714	0.06591797	
1740990901715	0.026931763	
1740990901716	-0.08453369	
1740990901717	-0.1902008	
1740990901718	-0.40641785	
1740990901719	-0.46089172	
1740990901720	-0.20263672	
1740990901721	0.019836426	
1740990901722	0.025482178	
1740990901723	-0.049972534	
1740990901724	-0.12275696	
1740990901725	-0.24787903	
1740990901726	-0.19180298	
1740990901727	0.026016235	
1740990901728	-0.05722046	
1740990901729	0.052947998	
1740990901730	0.4737091	
1740990901731	0.45967102	
1740990901732	0.42892456	
1740990901733	0.46562195	
1740990901734	0.3138733	
1740990901735	0.16853333	
1740990901736	-0.11734009	
1740990901737	-0.23330688	
1740990901738	-0.19363403	
1740990901739	-0.25268555	
1740990901740	-0.14564514	
1740990901741	-0.04119873	
1740990901742	-0.049362183	
1740990901743	0.033111572	
1740990901744	0.06858826	
1740990901745	0.028839111	
1740990901746	0.0315094	
1740990901747	0.020599365	
1740990901748	0.002746582	
1740990901749	0.004119873	
1740990901750	0.02029419	
1740990901751	0.009307861	
1740990901752	-0.017471313	
1740990901753	-0.03753662	
1740990901754	-0.056152344	
1740990901755	-0.016555786	
1740990901756	-0.021514893	
1740990901757	-0.04020691	
1740990901758	-7.6293945E-5	
1740990901759	-0.018997192	
1740990901760	-0.028381348	
1740990901761	-0.027160645	
1740990901762	-0.07148743	
1740990901763	-0.094451904	
1740990901764	-0.097961426	
1740990901765	-0.034103394	
1740990901766	0.029525757	
1740990901767	0.013809204	
1740990901768	0.029830933	
1740990901769	0.04135132	
1740990901770	0.028305054	
1740990901771	0.03829956	
1740990901772	0.030136108	
1740990901773	0.028839111	
1740990901774	0.032806396	
1740990901775	0.032730103	
1740990901776	0.026550293	
1740990901777	0.013885498	
1740990901778	0.014801025	
1740990901779	0.0119018555	
1740990901780	0.012588501	
1740990901781	0.01586914	
1740990901782	5.340576E-4	
1740990901783	-0.0065612793	
1740990901784	-0.010299683	
1740990901785	-0.013122559	
1740990901786	-0.0077819824	
1740990901787	-0.010681152	
1740990901788	-0.008468628	
1740990901789	-0.004119873	
1740990901790	-0.010681152	
1740990901791	-0.004425049	
1740990901792	3.8146973E-4	
1740990901793	-0.005722046	
1740990901794	-0.004196167	
1740990901795	-0.0019073486	
1740990901796	1.5258789E-4	
1740990901797	0.0032806396	
1740990901798	-0.001449585	
1740990901799	-0.0047302246	
1740990901800	-2.2888184E-4	
1740990901801	0.001373291	
1740990901802	-1.5258789E-4	
1740990901803	0.001449585	
1740990901804	0.0062561035	
1740990901805	0.005874634	
1740990901806	0.0	
1740990901807	8.392334E-4	
1740990901808	0.0061798096	
1740990901809	0.0033569336	
1740990901810	0.0012207031	
1740990901811	0.0	
1740990901812	-0.0018310547	
1740990901813	-0.0032043457	
1740990901814	-1.5258789E-4	
1740990901815	3.0517578E-4	
1740990901816	-0.007247925	
1740990901817	-0.0077819824	
1740990901818	-0.0025939941	
1740990901819	-0.005340576	
1740990901820	-0.006790161	
1740990901821	1.5258789E-4	
1740990901822	0.0066375732	
1740990901823	0.005569458	
1740990901824	0.0035095215	
1740990901825	0.0010681152	
1740990901826	2.2888184E-4	
1740990901827	-0.005645752	
1740990901828	-0.0035858154	
1740990901829	-9.1552734E-4	
1740990901830	-0.010604858	
1740990901831	-0.0037384033	
1740990901832	0.010528564	
1740990901833	0.010986328	
1740990901834	0.0022888184	
1740990901835	-0.007171631	
1740990901836	-0.0017547607	
1740990901837	0.0066375732	
1740990901838	0.0	
1740990901839	-0.0023651123	
1740990901840	-0.0016784668	
1740990901841	-0.005493164	
1740990901842	-0.0046539307	
1740990901843	-0.008621216	
1740990901844	-0.006713867	
1740990901845	0.004348755	
1740990901846	0.0016784668	
1740990901847	0.0011444092	
1740990901848	0.004348755	
1740990901849	9.1552734E-4	
1740990901850	-0.0018310547	
1740990901851	0.0018310547	
1740990901852	0.0075531006	
1740990901853	0.008468628	
1740990901854	0.015258789	
1740990901855	0.0030517578	
1740990901856	-6.1035156E-4	
1740990901857	0.012207031	
1740990901858	0.0025177002	
1740990901859	-9.918213E-4	
1740990901860	-0.0032806396	
1740990901861	-0.0032806396	
1740990901862	0.0077056885	
1740990901863	-0.0048065186	
1740990901864	-0.015792847	
1740990901865	-0.0064849854	
1740990901866	0.0016021729	
1740990901867	-0.0010681152	
1740990901868	-0.00831604	
1740990901869	-0.0132751465	
1740990901870	-0.0090789795	
1740990901871	-0.00831604	
1740990901872	-0.00579834	
1740990901873	4.5776367E-4	
1740990901874	-0.0038146973	
1740990901875	-0.0035095215	
1740990901876	-0.0032806396	
1740990901877	-0.005493164	
1740990901878	-0.005645752	
1740990901879	-0.0015258789	
1740990901880	0.004043579	
1740990901881	0.00579834	
1740990901882	0.004119873	
1740990901883	0.001373291	
1740990901884	-9.918213E-4	
1740990901885	5.340576E-4	
1740990901886	-3.8146973E-4	
1740990901887	4.5776367E-4	
1740990901888	6.1035156E-4	
1740990901889	-0.004348755	
1740990901890	0.0049591064	
1740990901891	0.015335083	
1740990901892	0.0146484375	
1740990901893	0.019760132	
1740990901894	0.017929077	
1740990901895	0.008544922	
1740990901896	-0.004196167	
1740990901897	-0.014038086	
1740990901898	-0.009765625	
1740990901899	-0.005874634	
1740990901900	0.0050354004	
1740990901901	0.008163452	
1740990901902	0.009841919	
1740990901903	0.0118255615	
1740990901904	4.5776367E-4	
1740990901905	-0.004043579	
1740990901906	-0.006790161	
1740990901907	-0.0118255615	
1740990901908	-0.008010864	
1740990901909	0.0019836426	
1740990901910	0.007095337	
1740990901911	0.007019043	
1740990901912	0.0034332275	
1740990901913	0.0019073486	
1740990901914	0.0019836426	
1740990901915	-9.1552734E-4	
1740990901916	-0.0063323975	
1740990901917	-0.005645752	
1740990901918	-0.009689331	
1740990901919	-0.007858276	
1740990901920	0.006942749	
1740990901921	0.011138916	
1740990901922	0.006790161	
1740990901923	0.0012207031	
1740990901924	-0.008850098	
1740990901925	-0.015335083	
1740990901926	-0.0061798096	
1740990901927	-0.0038909912	
1740990901928	-0.0073242188	
1740990901929	-9.918213E-4	
1740990901930	0.0033569336	
1740990901931	0.003967285	
1740990901932	0.004272461	
1740990901933	0.0015258789	
1740990901934	-9.918213E-4	
1740990901935	-0.005645752	
1740990901936	-0.004272461	
1740990901937	-0.005264282	
1740990901938	-0.01586914	
1740990901939	-0.012893677	
1740990901940	-0.011062622	
1740990901941	-0.02166748	
1740990901942	-0.020599365	
1740990901943	-0.015335083	
1740990901944	-0.008087158	
1740990901945	0.00289917	
1740990901946	0.0063323975	
1740990901947	0.01335144	
1740990901948	0.020828247	
1740990901949	0.021972656	
1740990901950	0.015716553	
1740990901951	0.010528564	
1740990901952	0.01411438	
1740990901953	0.015182495	
1740990901954	0.010223389	
1740990901955	0.0030517578	
1740990901956	0.008087158	
1740990901957	0.012817383	
1740990901958	0.00579834	
1740990901959	0.006942749	
1740990901960	0.005340576	
1740990901961	-7.6293945E-5	
1740990901962	0.0030517578	
1740990901963	-0.002746582	
1740990901964	-0.013122559	
1740990901965	-0.014801025	
1740990901966	-0.007171631	
1740990901967	-0.004043579	
1740990901968	-0.012588501	
1740990901969	-0.0062561035	
1740990901970	0.006713867	
1740990901971	0.009765625	
1740990901972	0.00869751	
1740990901973	1.5258789E-4	
1740990901974	-0.002670288	
1740990901975	0.002822876	
1740990901976	-0.0020599365	
1740990901977	-0.00289917	
1740990901978	0.0017547607	
1740990901979	-0.0019073486	
1740990901980	-0.0031280518	
1740990901981	-0.0030517578	
1740990901982	-0.005264282	
1740990901983	-0.0021362305	
1740990901984	-4.5776367E-4	
1740990901985	-0.0077056885	
1740990901986	-0.008850098	
1740990901987	-0.008468628	
1740990901988	-0.0132751465	
1740990901989	-0.012207031	
1740990901990	-0.008544922	
1740990901991	-0.008163452	
1740990901992	-0.0035095215	
1740990901993	0.008163452	
1740990901994	0.014724731	
1740990901995	0.009155273	
1740990901996	0.008087158	
1740990901997	0.0032806396	
1740990901998	-7.6293945E-5	
1740990901999	0.009994507	
1740990902000	0.004043579	
1740990902001	-0.0012969971	
1740990902002	-0.0047302246	
1740990902003	-0.008087158	
1740990902004	-6.1035156E-4	
1740990902005	0.0025177002	
1740990902006	5.340576E-4	
1740990902007	-0.0025939941	
1740990902008	0.008621216	
1740990902009	0.017929077	
1740990902010	0.019607544	
1740990902011	0.019302368	
1740990902012	0.010681152	
1740990902013	7.6293945E-4	
1740990902014	-0.015640259	
1740990902015	-0.021743774	
1740990902016	-0.006942749	
1740990902017	-0.0019836426	
1740990902018	-0.002822876	
1740990902019	-0.0045776367	
1740990902020	-0.018081665	
1740990902021	-0.016098022	
1740990902022	-0.012817383	
1740990902023	-0.0062561035	
1740990902024	0.0047302246	
1740990902025	-0.0016021729	
1740990902026	-0.0012969971	
1740990902027	0.0060272217	
1740990902028	0.004348755	
1740990902029	-0.0029754639	
1740990902030	-0.004043579	
1740990902031	-3.0517578E-4	
1740990902032	0.0010681152	
1740990902033	0.00793457	
1740990902034	0.01121521	
1740990902035	0.012130737	
1740990902036	0.019073486	
1740990902037	0.021133423	
1740990902038	0.020446777	
1740990902039	0.012130737	
1740990902040	0.0047302246	
1740990902041	0.021743774	
1740990902042	0.027923584	
1740990902043	0.004196167	
1740990902044	-0.022735596	
1740990902045	-0.050354004	
1740990902046	-0.051345825	
1740990902047	-0.010528564	
1740990902048	0.0060272217	
1740990902049	-0.005645752	
1740990902050	0.002746582	
1740990902051	0.0104522705	
1740990902052	0.0064086914	
1740990902053	-8.392334E-4	
1740990902054	-0.006866455	
1740990902055	-0.01411438	
1740990902056	-0.02708435	
1740990902057	-0.025863647	
1740990902058	-0.014877319	
1740990902059	-0.011672974	
1740990902060	-0.0035858154	
1740990902061	0.008621216	
1740990902062	4.5776367E-4	
1740990902063	0.0016784668	
1740990902064	0.019989014	
1740990902065	0.024032593	
1740990902066	0.032196045	
1740990902067	0.03173828	
1740990902068	0.04234314	
1740990902069	0.056991577	
1740990902070	0.027694702	
1740990902071	0.0031280518	
1740990902072	-0.014877319	
1740990902073	-0.005874634	
1740990902074	0.026626587	
1740990902075	-0.008163452	
1740990902076	-0.029525757	
1740990902077	-0.019836426	
1740990902078	-0.038223267	
1740990902079	-0.035095215	
1740990902080	-0.035705566	
1740990902081	-0.024490356	
1740990902082	-0.025024414	
1740990902083	-0.049819946	
1740990902084	-0.03288269	
1740990902085	-0.021820068	
1740990902086	-0.01838684	
1740990902087	-0.017929077	
1740990902088	-0.034103394	
1740990902089	-0.022888184	
1740990902090	3.8146973E-4	
1740990902091	0.027160645	
1740990902092	0.05836487	
1740990902093	0.06813049	
1740990902094	0.06958008	
1740990902095	0.036392212	
1740990902096	5.340576E-4	
1740990902097	0.014953613	
1740990902098	0.021743774	
1740990902099	0.014877319	
1740990902100	0.017089844	
1740990902101	0.0032806396	
1740990902102	-7.6293945E-5	
1740990902103	0.012664795	
1740990902104	0.0037384033	
1740990902105	-0.009460449	
1740990902106	-0.0090789795	
1740990902107	-7.6293945E-5	
1740990902108	0.014190674	
1740990902109	0.011444092	
1740990902110	-0.004196167	
1740990902111	-0.02418518	
1740990902112	-0.04425049	
1740990902113	-0.036315918	
1740990902114	-0.020980835	
1740990902115	-0.011367798	
1740990902116	-0.0034332275	
1740990902117	-0.0012207031	
1740990902118	0.010757446	
1740990902119	0.015106201	
1740990902120	0.015945435	
1740990902121	0.017471313	
1740990902122	0.004501343	
1740990902123	0.001373291	
1740990902124	-0.001373291	
1740990902125	-0.013580322	
1740990902126	-0.004119873	
1740990902127	0.004501343	
1740990902128	-0.006790161	
1740990902129	-0.0016784668	
1740990902130	0.03730774	
1740990902131	0.06996155	
1740990902132	0.04837036	
1740990902133	0.005493164	
1740990902134	-0.00869751	
1740990902135	-0.018844604	
1740990902136	-0.025634766	
1740990902137	-0.022125244	
1740990902138	-0.023040771	
1740990902139	-0.021438599	
1740990902140	-0.023345947	
1740990902141	-0.026321411	
1740990902142	-0.01991272	
1740990902143	-0.012741089	
1740990902144	-0.016174316	
1740990902145	-0.019760132	
1740990902146	-0.010910034	
1740990902147	-0.0061035156	
1740990902148	-0.0024414062	
1740990902149	0.0032043457	
1740990902150	6.866455E-4	
1740990902151	0.005874634	
1740990902152	0.017242432	
1740990902153	0.017166138	
1740990902154	-0.0048828125	
1740990902155	-0.021972656	
1740990902156	-0.012283325	
1740990902157	-0.0034332275	
1740990902158	0.0023651123	
1740990902159	0.015487671	
1740990902160	0.029220581	
1740990902161	0.03440857	
1740990902162	0.03440857	
1740990902163	0.0440979	
1740990902164	0.0415802	
1740990902165	0.010910034	
1740990902166	0.0051116943	
1740990902167	0.0104522705	
1740990902168	-0.009155273	
1740990902169	-0.019302368	
1740990902170	-0.033111572	
1740990902171	-0.04081726	
1740990902172	-0.035095215	
1740990902173	-0.028839111	
1740990902174	-0.027999878	
1740990902175	-0.029754639	
1740990902176	-0.022354126	
1740990902177	-0.015335083	
1740990902178	-0.0061798096	
1740990902179	0.0022888184	
1740990902180	0.0031280518	
1740990902181	0.012893677	
1740990902182	0.019683838	
1740990902183	0.020751953	
1740990902184	0.025939941	
1740990902185	0.022354126	
1740990902186	0.017852783	
1740990902187	0.01838684	
1740990902188	0.029144287	
1740990902189	0.03211975	
1740990902190	0.015182495	
1740990902191	0.009536743	
1740990902192	-0.001449585	
1740990902193	-7.6293945E-5	
1740990902194	0.035476685	
1740990902195	0.032196045	
1740990902196	0.00831604	
1740990902197	9.1552734E-4	
1740990902198	-0.015335083	
1740990902199	-0.016326904	
1740990902200	-0.019073486	
1740990902201	-0.028076172	
1740990902202	-0.022506714	
1740990902203	-0.011291504	
1740990902204	0.005493164	
1740990902205	0.0046539307	
1740990902206	-0.02166748	
1740990902207	-0.035476685	
1740990902208	-0.037612915	
1740990902209	-0.046844482	
1740990902210	-0.011520386	
1740990902211	0.03791809	
1740990902212	0.011367798	
1740990902213	-0.015640259	
1740990902214	-0.011291504	
1740990902215	-0.08140564	
1740990902216	-0.1360321	
1740990902217	-0.018539429	
1740990902218	0.074920654	
1740990902219	0.036315918	
1740990902220	0.059661865	
1740990902221	0.07316589	
1740990902222	0.05393982	
1740990902223	0.06309509	
1740990902224	0.03883362	
1740990902225	0.036010742	
1740990902226	0.029220581	
1740990902227	0.014190674	
1740990902228	0.010757446	
1740990902229	-0.0062561035	
1740990902230	-0.010986328	
1740990902231	-0.016784668	
1740990902232	-0.02319336	
1740990902233	-0.023727417	
1740990902234	-0.025634766	
1740990902235	-0.031585693	
1740990902236	-0.03540039	
1740990902237	-0.021820068	
1740990902238	-0.005722046	
1740990902239	-0.008010864	
1740990902240	-0.018310547	
1740990902241	-0.024719238	
1740990902242	-0.047225952	
1740990902243	-0.079956055	
1740990902244	-0.0617218	
1740990902245	0.0012207031	
1740990902246	0.018997192	
1740990902247	0.017089844	
1740990902248	0.013198853	
1740990902249	0.01838684	
1740990902250	0.072250366	
1740990902251	0.05973816	
1740990902252	0.032196045	
1740990902253	0.053100586	
1740990902254	0.04371643	
1740990902255	0.044021606	
1740990902256	0.03677368	
1740990902257	0.017852783	
1740990902258	0.01914978	
1740990902259	0.010147095	
1740990902260	0.008087158	
1740990902261	0.004119873	
1740990902262	-0.013961792	
1740990902263	-0.023651123	
1740990902264	-0.025558472	
1740990902265	-0.014038086	
1740990902266	0.0016021729	
1740990902267	0.004272461	
1740990902268	0.0019836426	
1740990902269	-0.009231567	
1740990902270	-0.020980835	
1740990902271	-0.029144287	
1740990902272	-0.049057007	
1740990902273	-0.05935669	
1740990902274	-0.05744934	
1740990902275	-0.0554657	
1740990902276	-0.0491333	
1740990902277	-0.034561157	
1740990902278	-0.018920898	
1740990902279	-0.0061035156	
1740990902280	-7.6293945E-5	
1740990902281	0.013885498	
1740990902282	0.030822754	
1740990902283	0.0340271	
1740990902284	0.036849976	
1740990902285	0.036315918	
1740990902286	0.030059814	
1740990902287	0.013885498	
1740990902288	-9.918213E-4	
1740990902289	-0.009994507	
1740990902290	0.008392334	
1740990902291	0.02861023	
1740990902292	0.024108887	
1740990902293	0.0289917	
1740990902294	0.027236938	
1740990902295	0.014724731	
1740990902296	0.015335083	
1740990902297	0.016784668	
1740990902298	0.008621216	
1740990902299	6.1035156E-4	
1740990902300	0.005493164	
1740990902301	-0.0025177002	
1740990902302	-0.008087158	
1740990902303	-0.0032806396	
1740990902304	-0.01335144	
1740990902305	-0.015487671	
1740990902306	-0.02166748	
1740990902307	-0.026931763	
1740990902308	-0.027313232	
1740990902309	-0.021743774	
1740990902310	0.008087158	
1740990902311	0.014038086	
1740990902312	-0.004119873	
1740990902313	-0.008773804	
1740990902314	-0.04058838	
1740990902315	-0.036010742	
1740990902316	0.020599365	
1740990902317	0.022201538	
1740990902318	0.009841919	
1740990902319	-4.5776367E-4	
1740990902320	-0.012817383	
1740990902321	0.0033569336	
1740990902322	0.008621216	
1740990902323	0.030593872	
1740990902324	0.06729126	
1740990902325	0.06706238	
1740990902326	0.06500244	
1740990902327	0.046157837	
1740990902328	-0.0074005127	
1740990902329	-0.07408142	
1740990902330	-0.117874146	
1740990902331	-0.0579834	
1740990902332	-0.0060272217	
1740990902333	-0.033111572	
1740990902334	-0.012893677	
1740990902335	0.018692017	
1740990902336	0.035095215	
1740990902337	0.036239624	
1740990902338	-0.015945435	
1740990902339	-0.029067993	
1740990902340	-0.023498535	
1740990902341	-0.076675415	
1740990902342	-0.085754395	
1740990902343	-0.019454956	
1740990902344	0.026168823	
1740990902345	0.041656494	
1740990902346	0.054779053	
1740990902347	0.057525635	
1740990902348	0.041656494	
1740990902349	0.025634766	
1740990902350	0.017700195	
1740990902351	0.011062622	
1740990902352	0.010986328	
1740990902353	0.0062561035	
1740990902354	0.00289917	
1740990902355	0.008773804	
1740990902356	0.01083374	
1740990902357	0.012435913	
1740990902358	0.006790161	
1740990902359	-0.003967285	
1740990902360	-0.0017547607	
1740990902361	-0.013885498	
1740990902362	-0.025634766	
1740990902363	0.018920898	
1740990902364	0.057907104	
1740990902365	0.0065612793	
1740990902366	-0.090789795	
1740990902367	-0.14442444	
1740990902368	-0.09300232	
1740990902369	-0.02494812	
1740990902370	-0.012588501	
1740990902371	0.038909912	
1740990902372	0.06614685	
1740990902373	0.05973816	
1740990902374	0.043792725	
1740990902375	0.01953125	
1740990902376	0.06500244	
1740990902377	0.11077881	
1740990902378	0.10765076	
1740990902379	0.08049011	
1740990902380	0.06828308	
1740990902381	0.03829956	
1740990902382	-0.10185242	
1740990902383	-0.2709961	
1740990902384	-0.35224915	
1740990902385	-0.2518463	
1740990902386	-0.030212402	
1740990902387	0.0076293945	
1740990902388	-0.059890747	
1740990902389	0.16036987	
1740990902390	0.37376404	
1740990902391	0.27069092	
1740990902392	0.15014648	
1740990902393	0.09925842	
1740990902394	0.046844482	
1740990902395	-0.22460938	
1740990902396	-0.5443573	
1740990902397	-0.22956848	
1740990902398	0.23216248	
1740990902399	0.27435303	
1740990902400	0.19920349	
1740990902401	0.048446655	
1740990902402	0.05882263	
1740990902403	0.13191223	
1740990902404	-0.0554657	
1740990902405	-0.317688	
1740990902406	-0.39268494	
1740990902407	-0.1700592	
1740990902408	-0.14328003	
1740990902409	-0.15800476	
1740990902410	0.04875183	
1740990902411	0.07751465	
1740990902412	0.102767944	
1740990902413	0.11520386	
1740990902414	0.08644104	
1740990902415	0.11390686	
1740990902416	0.13839722	
1740990902417	0.19714355	
1740990902418	0.16357422	
1740990902419	0.15068054	
1740990902420	0.20103455	
1740990902421	0.19432068	
1740990902422	0.22499084	
1740990902423	0.21324158	
1740990902424	0.19813538	
1740990902425	0.10505676	
1740990902426	-0.20263672	
1740990902427	-0.38833618	
1740990902428	-0.32546997	
1740990902429	-0.21270752	
1740990902430	-0.31906128	
1740990902431	-0.61531067	
1740990902432	-0.548172	
1740990902433	-0.28419495	
1740990902434	-0.26420593	
1740990902435	-0.034866333	
1740990902436	0.17715454	
1740990902437	0.12763977	
1740990902438	0.25260925	
1740990902439	0.26733398	
1740990902440	0.24108887	
1740990902441	0.26023865	
1740990902442	0.13374329	
1740990902443	-0.0017547607	
1740990902444	-0.016326904	
1740990902445	0.1776886	
1740990902446	0.24291992	
1740990902447	0.1385498	
1740990902448	0.14183044	
1740990902449	0.12298584	
1740990902450	0.0819397	
1740990902451	0.042495728	
1740990902452	-0.022201538	
1740990902453	-0.043640137	
1740990902454	-0.041046143	
1740990902455	-0.044555664	
1740990902456	-0.058670044	
1740990902457	-0.08972168	
1740990902458	-0.12870789	
1740990902459	-0.13763428	
1740990902460	-0.115356445	
1740990902461	-0.090789795	
1740990902462	-0.051574707	
1740990902463	-0.0073242188	
1740990902464	-0.007095337	
1740990902465	-0.028839111	
1740990902466	-0.03829956	
1740990902467	-0.048828125	
1740990902468	-0.027236938	
1740990902469	0.010147095	
1740990902470	0.026779175	
1740990902471	0.030593872	
1740990902472	0.01083374	
1740990902473	-0.0132751465	
1740990902474	-0.029373169	
1740990902475	-0.0315094	
1740990902476	-0.02204895	
1740990902477	-0.019760132	
1740990902478	-0.011367798	
1740990902479	0.004196167	
1740990902480	0.018157959	
1740990902481	0.033340454	
1740990902482	0.037002563	
1740990902483	0.03845215	
1740990902484	0.052642822	
1740990902485	0.040283203	
1740990902486	0.02708435	
1740990902487	0.043563843	
1740990902488	0.038223267	
1740990902489	0.022659302	
1740990902490	0.014877319	
1740990902491	0.004272461	
1740990902492	-0.0050354004	
1740990902493	0.0012207031	
1740990902494	0.027770996	
1740990902495	0.038375854	
1740990902496	0.03135681	
1740990902497	0.027542114	
1740990902498	0.05203247	
1740990902499	0.03677368	
1740990902500	-0.016937256	
1740990902501	-0.044631958	
1740990902502	-0.071640015	
1740990902503	-0.08453369	
1740990902504	-0.0048828125	
1740990902505	0.07797241	
1740990902506	-0.007247925	
1740990902507	-0.07354736	
1740990902508	-0.076828	
1740990902509	-0.20874023	
1740990902510	-0.19142151	
1740990902511	0.06889343	
1740990902512	0.080947876	
1740990902513	0.01777649	
1740990902514	0.073013306	
1740990902515	0.028533936	
1740990902516	0.053329468	
1740990902517	0.044631958	
1740990902518	0.005874634	
1740990902519	0.028839111	
1740990902520	-0.004425049	
1740990902521	0.021209717	
1740990902522	0.03982544	
1740990902523	0.0017547607	
1740990902524	0.0038909912	
1740990902525	-0.030899048	
1740990902526	-0.09979248	
1740990902527	-0.06858826	
1740990902528	-0.010223389	
1740990902529	-0.07217407	
1740990902530	-0.06492615	
1740990902531	0.03440857	
1740990902532	0.029907227	
1740990902533	0.026779175	
1740990902534	0.036315918	
1740990902535	0.03303528	
1740990902536	0.033569336	
1740990902537	0.033798218	
1740990902538	0.07446289	
1740990902539	0.06477356	
1740990902540	0.020599365	
1740990902541	7.6293945E-5	
1740990902542	-0.021057129	
1740990902543	0.0046539307	
1740990902544	0.036468506	
1740990902545	0.0466156	
1740990902546	0.066986084	
1740990902547	0.0132751465	
1740990902548	-0.01876831	
1740990902549	0.06996155	
1740990902550	-0.030670166	
1740990902551	-0.14907837	
1740990902552	-0.07759094	
1740990902553	-0.14938354	
1740990902554	-0.112457275	
1740990902555	-0.038375854	
1740990902556	-0.04058838	
1740990902557	0.15670776	
1740990902558	0.13587952	
1740990902559	-0.019836426	
1740990902560	0.011749268	
1740990902561	0.025405884	
1740990902562	0.024414062	
1740990902563	0.005874634	
1740990902564	-0.031280518	
1740990902565	-0.031280518	
1740990902566	-0.03036499	
1740990902567	-0.008468628	
1740990902568	0.0010681152	
1740990902569	-0.01083374	
1740990902570	-0.004501343	
1740990902571	-0.01914978	
1740990902572	-0.023345947	
1740990902573	-0.006942749	
1740990902574	-6.866455E-4	
1740990902575	0.011444092	
1740990902576	0.043029785	
1740990902577	0.06752014	
1740990902578	0.030288696	
1740990902579	-0.015487671	
1740990902580	0.004119873	
1740990902581	0.054626465	
1740990902582	0.05203247	
1740990902583	-0.03868103	
1740990902584	-0.13908386	
1740990902585	-0.18135071	
1740990902586	-0.13282776	
1740990902587	-0.02784729	
1740990902588	0.038604736	
1740990902589	0.0793457	
1740990902590	0.09429932	
1740990902591	0.076293945	
1740990902592	0.08262634	
1740990902593	0.097351074	
1740990902594	0.12237549	
1740990902595	0.1374054	
1740990902596	0.09048462	
1740990902597	8.392334E-4	
1740990902598	-0.06011963	
1740990902599	-0.07797241	
1740990902600	-0.233078	
1740990902601	-0.3113556	
1740990902602	-0.03479004	
1740990902603	0.06416321	
1740990902604	-0.036392212	
1740990902605	-0.013046265	
1740990902606	-0.0051879883	
1740990902607	0.05607605	
1740990902608	0.048446655	
1740990902609	0.024108887	
1740990902610	0.101242065	
1740990902611	0.06347656	
1740990902612	-0.006713867	
1740990902613	-0.004196167	
1740990902614	0.00579834	
1740990902615	-0.00541687	
1740990902616	0.016021729	
1740990902617	0.034179688	
1740990902618	0.018081665	
1740990902619	0.029220581	
1740990902620	0.019989014	
1740990902621	4.5776367E-4	
1740990902622	3.0517578E-4	
1740990902623	-0.009307861	
1740990902624	-0.014572144	
1740990902625	-0.022888184	
1740990902626	-0.01838684	
1740990902627	-0.0074768066	
1740990902628	-0.016784668	
1740990902629	-0.013809204	
1740990902630	-0.021209717	
1740990902631	-0.032806396	
1740990902632	-0.029830933	
1740990902633	-0.039749146	
1740990902634	-0.033187866	
1740990902635	-0.028686523	
1740990902636	-0.038528442	
1740990902637	-0.025939941	
1740990902638	-0.0049591064	
1740990902639	0.012512207	
1740990902640	0.026931763	
1740990902641	0.023498535	
1740990902642	0.01625061	
1740990902643	0.030975342	
1740990902644	0.02571106	
1740990902645	0.012741089	
1740990902646	0.030593872	
1740990902647	0.017547607	
1740990902648	-0.0074005127	
1740990902649	-0.0035858154	
1740990902650	-0.006790161	
1740990902651	-0.011749268	
1740990902652	0.0022125244	
1740990902653	0.008773804	
1740990902654	0.005569458	
1740990902655	-0.00541687	
1740990902656	-0.014572144	
1740990902657	0.022201538	
1740990902658	0.05241394	
1740990902659	0.028457642	
1740990902660	0.015335083	
1740990902661	0.018234253	
1740990902662	0.010147095	
1740990902663	-0.0031280518	
1740990902664	-0.01777649	
1740990902665	7.6293945E-5	
1740990902666	-0.0061798096	
1740990902667	-0.02609253	
1740990902668	-0.001449585	
1740990902669	0.002822876	
1740990902670	0.013504028	
1740990902671	0.02029419	
1740990902672	0.0035095215	
1740990902673	-0.0048065186	
1740990902674	-0.005493164	
1740990902675	-0.004425049	
1740990902676	-0.008392334	
1740990902677	0.0016021729	
1740990902678	-0.0025939941	
1740990902679	-0.018463135	
1740990902680	-0.020599365	
1740990902681	-0.018081665	
1740990902682	-0.01914978	
1740990902683	-0.022277832	
1740990902684	-0.022201538	
1740990902685	-0.01953125	
1740990902686	-0.015258789	
1740990902687	-0.007171631	
1740990902688	-0.009155273	
1740990902689	-0.012054443	
1740990902690	-0.008163452	
1740990902691	0.0035095215	
1740990902692	0.014724731	
1740990902693	-0.0015258789	
1740990902694	-0.01586914	
1740990902695	-0.0046539307	
1740990902696	0.0048828125	
1740990902697	0.017623901	
1740990902698	0.030517578	
1740990902699	0.0132751465	
1740990902700	9.1552734E-4	
1740990902701	0.004272461	
1740990902702	-0.004119873	
1740990902703	0.0024414062	
1740990902704	7.6293945E-5	
1740990902705	-0.012817383	
1740990902706	9.1552734E-4	
1740990902707	0.008087158	
1740990902708	0.012359619	
1740990902709	0.028686523	
1740990902710	0.024108887	
1740990902711	0.004501343	
1740990902712	-0.0061035156	
1740990902713	-0.006942749	
1740990902714	0.013427734	
1740990902715	0.025100708	
1740990902716	0.0023651123	
1740990902717	0.0074005127	
1740990902718	0.033569336	
1740990902719	0.002670288	
1740990902720	-0.03829956	
1740990902721	-0.028381348	
1740990902722	-0.029678345	
1740990902723	-0.04600525	
1740990902724	-0.03326416	
1740990902725	-0.018615723	
1740990902726	0.02204895	
1740990902727	0.06011963	
1740990902728	0.04486084	
1740990902729	0.045013428	
1740990902730	0.039367676	
1740990902731	-0.0037384033	
1740990902732	-0.023956299	
1740990902733	-0.008850098	
1740990902734	-0.001449585	
1740990902735	-0.01739502	
1740990902736	-0.019607544	
1740990902737	-0.008087158	
1740990902738	-0.013427734	
1740990902739	-0.025482178	
1740990902740	-0.04219055	
1740990902741	-0.04585266	
1740990902742	0.009689331	
1740990902743	0.050201416	
1740990902744	0.031280518	
1740990902745	0.013504028	
1740990902746	-0.0051116943	
1740990902747	-0.028076172	
1740990902748	-0.022277832	
1740990902749	-1.5258789E-4	
1740990902750	0.0018310547	
1740990902751	-0.005493164	
1740990902752	0.015029907	
1740990902753	0.043640137	
1740990902754	0.05455017	
1740990902755	0.014190674	
1740990902756	-0.039749146	
1740990902757	-0.040283203	
1740990902758	-0.02281189	
1740990902759	-9.918213E-4	
1740990902760	0.020599365	
1740990902761	0.009994507	
1740990902762	-0.008087158	
1740990902763	0.0023651123	
1740990902764	0.0059509277	
1740990902765	0.014801025	
1740990902766	0.020828247	
1740990902767	-0.02166748	
1740990902768	-0.03189087	
1740990902769	-0.024414062	
1740990902770	-0.032196045	
1740990902771	0.0029754639	
1740990902772	0.023803711	
1740990902773	0.016021729	
1740990902774	0.0024414062	
1740990902775	-0.005874634	
1740990902776	-0.0062561035	
1740990902777	-0.017700195	
1740990902778	-0.017089844	
1740990902779	-0.021209717	
1740990902780	-0.02418518	
1740990902781	0.01701355	
1740990902782	0.06645203	
1740990902783	0.06813049	
1740990902784	0.031280518	
1740990902785	-0.013885498	
1740990902786	-0.04005432	
1740990902787	-0.023803711	
1740990902788	0.020446777	
1740990902789	0.048294067	
1740990902790	0.024414062	
1740990902791	-0.017929077	
1740990902792	-0.030822754	
1740990902793	-0.0146484375	
1740990902794	0.015716553	
1740990902795	0.002746582	
1740990902796	-0.030136108	
1740990902797	-0.022277832	
1740990902798	-0.0024414062	
1740990902799	0.036392212	
1740990902800	0.036697388	
1740990902801	-0.012283325	
1740990902802	0.018234253	
1740990902803	-0.005645752	
1740990902804	-0.12908936	
1740990902805	-0.04508972	
1740990902806	0.05645752	
1740990902807	-0.030517578	
1740990902808	-0.035629272	
1740990902809	-0.025253296	
1740990902810	-0.056610107	
1740990902811	-0.02128601	
1740990902812	0.06309509	
1740990902813	0.10551453	
1740990902814	0.03967285	
1740990902815	0.015640259	
1740990902816	0.028686523	
1740990902817	0.017852783	
1740990902818	0.0024414062	
1740990902819	-0.010910034	
1740990902820	-0.018081665	
1740990902821	-0.05104065	
1740990902822	-0.04714966	
1740990902823	-0.022735596	
1740990902824	-0.0047302246	
1740990902825	0.029220581	
1740990902826	0.06286621	
1740990902827	0.1109314	
1740990902828	0.09361267	
1740990902829	0.026321411	
1740990902830	-0.03211975	
1740990902831	-0.07156372	
1740990902832	-0.001449585	
1740990902833	0.036392212	
1740990902834	0.001449585	
1740990902835	0.017852783	
1740990902836	-0.042419434	
1740990902837	-0.10757446	
1740990902838	-0.059661865	
1740990902839	-0.029678345	
1740990902840	0.0119018555	
1740990902841	0.08018494	
1740990902842	0.027694702	
1740990902843	-0.1146698	
1740990902844	-0.16571045	
1740990902845	-0.047454834	
1740990902846	0.047836304	
1740990902847	0.017089844	
1740990902848	0.033416748	
1740990902849	0.022125244	
1740990902850	-0.012207031	
1740990902851	0.037002563	
1740990902852	0.025100708	
1740990902853	0.01586914	
1740990902854	0.07019043	
1740990902855	0.07522583	
1740990902856	0.04508972	
1740990902857	0.039901733	
1740990902858	0.04776001	
1740990902859	0.0049591064	
1740990902860	-0.06591797	
1740990902861	-0.12924194	
1740990902862	-0.16738892	
1740990902863	-0.069122314	
1740990902864	0.1058197	
1740990902865	0.12557983	
1740990902866	0.05508423	
1740990902867	0.077056885	
1740990902868	0.06629944	
1740990902869	0.015487671	
1740990902870	-0.056228638	
1740990902871	-0.21217346	
1740990902872	-0.21781921	
1740990902873	-0.023269653	
1740990902874	0.0844574	
1740990902875	0.028839111	
1740990902876	-0.05531311	
1740990902877	0.04096985	
1740990902878	0.15182495	
1740990902879	0.03364563	
1740990902880	-0.0035858154	
1740990902881	0.031585693	
1740990902882	-0.020446777	
1740990902883	-0.004501343	
1740990902884	0.08850098	
1740990902885	0.123672485	
1740990902886	0.039978027	
1740990902887	-0.008468628	
1740990902888	-0.04524231	
1740990902889	-0.15068054	
1740990902890	-0.1322937	
1740990902891	-0.009841919	
1740990902892	0.10696411	
1740990902893	0.18302917	
1740990902894	0.24711609	
1740990902895	0.24047852	
1740990902896	0.102386475	
1740990902897	-0.024261475	
1740990902898	-0.20233154	
1740990902899	-0.2684021	
1740990902900	-0.33180237	
1740990902901	-0.52230835	
1740990902902	-0.24513245	
1740990902903	0.08232117	
1740990902904	-0.034561157	
1740990902905	0.035247803	
1740990902906	0.28053284	
1740990902907	0.2646637	
1740990902908	0.17074585	
1740990902909	0.06668091	
1740990902910	-0.055541992	
1740990902911	-0.073013306	
1740990902912	-0.041275024	
1740990902913	0.12321472	
1740990902914	0.11810303	
1740990902915	-0.14648438	
1740990902916	-0.3843689	
1740990902917	-0.5383301	
1740990902918	-0.1612854	
1740990902919	0.24520874	
1740990902920	0.12420654	
1740990902921	0.16983032	
1740990902922	0.33454895	
1740990902923	0.4232025	
1740990902924	0.47096252	
1740990902925	0.37086487	
1740990902926	0.29830933	
1740990902927	0.11024475	
1740990902928	-0.11894226	
1740990902929	-0.08468628	
1740990902930	0.0806427	
1740990902931	-0.0289917	
1740990902932	-0.2054596	
1740990902933	0.0756073	
1740990902934	-0.09384155	
1740990902935	-0.677948	
1740990902936	-0.5266571	
1740990902937	-0.38513184	
1740990902938	-0.49987793	
1740990902939	-0.2721405	
1740990902940	-0.25756836	
1740990902941	-0.3855896	
1740990902942	-0.30799866	
1740990902943	-0.043640137	
1740990902944	0.44067383	
1740990902945	0.57785034	
1740990902946	0.45845032	
1740990902947	0.57533264	
1740990902948	0.6098938	
1740990902949	0.38253784	
1740990902950	0.1915741	
1740990902951	0.09552002	
1740990902952	0.009155273	
1740990902953	-0.17211914	
1740990902954	-0.3453827	
1740990902955	-0.18928528	
1740990902956	-0.1260376	
1740990902957	-0.22071838	
1740990902958	-0.16914368	
1740990902959	-0.21308899	
1740990902960	-0.077056885	
1740990902961	0.16242981	
1740990902962	0.21354675	
1740990902963	0.33363342	
1740990902964	0.43792725	
1740990902965	0.259552	
1740990902966	-0.066986084	
1740990902967	-0.11161804	
1740990902968	-0.022888184	
1740990902969	-0.22140503	
1740990902970	-0.49110413	
1740990902971	-0.50453186	
1740990902972	-0.32432556	
1740990902973	-0.09086609	
1740990902974	0.11138916	
1740990902975	0.18661499	
1740990902976	0.1890564	
1740990902977	0.19317627	
1740990902978	0.17166138	
1740990902979	0.28167725	
1740990902980	0.31730652	
1740990902981	0.042266846	
1740990902982	-0.15892029	
1740990902983	-0.14938354	
1740990902984	-0.08621216	
1740990902985	-0.0856781	
1740990902986	-0.09010315	
1740990902987	-0.044326782	
1740990902988	-0.048217773	
1740990902989	-0.050125122	
1740990902990	-0.09101868	
1740990902991	-0.14839172	
1740990902992	-0.15396118	
1740990902993	-0.029678345	
1740990902994	0.18005371	
1740990902995	0.23048401	
1740990902996	0.22087097	
1740990902997	0.15625	
1740990902998	-0.11161804	
1740990902999	-0.43327332	
1740990903000	-0.3450775	
1740990903001	-0.08872986	
1740990903002	-0.029525757	
1740990903003	0.12557983	
1740990903004	0.0617218	
1740990903005	0.039978027	
1740990903006	0.29800415	
1740990903007	0.23361206	
1740990903008	0.18287659	
1740990903009	0.24810791	
1740990903010	0.10406494	
1740990903011	0.062942505	
1740990903012	0.04310608	
1740990903013	-0.03189087	
1740990903014	0.039367676	
1740990903015	0.039596558	
1740990903016	-0.05760193	
1740990903017	-0.14152527	
1740990903018	-0.19546509	
1740990903019	-0.14472961	
1740990903020	-0.056228638	
1740990903021	0.061569214	
1740990903022	0.154953	
1740990903023	0.026550293	
1740990903024	-0.22644043	
1740990903025	-0.32165527	
1740990903026	-0.3022766	
1740990903027	-0.21224976	
1740990903028	-0.08308411	
1740990903029	-0.020370483	
1740990903030	0.0693512	
1740990903031	0.14091492	
1740990903032	0.16914368	
1740990903033	0.18310547	
1740990903034	0.11871338	
1740990903035	0.042419434	
1740990903036	-0.00541687	
1740990903037	-0.020141602	
1740990903038	0.013961792	
1740990903039	0.021438599	
1740990903040	0.10757446	
1740990903041	0.19134521	
1740990903042	0.015258789	
1740990903043	-0.14778137	
1740990903044	-0.10231018	
1740990903045	-0.012359619	
1740990903046	0.12313843	
1740990903047	0.26268005	
1740990903048	0.11306763	
1740990903049	-0.1373291	
1740990903050	-0.16967773	
1740990903051	-0.15975952	
1740990903052	-0.0289917	
1740990903053	0.0970459	
1740990903054	0.034713745	
1740990903055	0.005493164	
1740990903056	-0.02609253	
1740990903057	-0.030288696	
1740990903058	-0.020828247	
1740990903059	-0.052719116	
1740990903060	-0.0048065186	
1740990903061	0.0046539307	
1740990903062	-0.014877319	
1740990903063	0.008087158	
1740990903064	-0.002746582	
1740990903065	-0.012893677	
1740990903066	-0.015258789	
1740990903067	-0.014572144	
1740990903068	-0.009918213	
1740990903069	-0.01701355	
1740990903070	-0.014266968	
1740990903071	-0.0017547607	
1740990903072	0.005874634	
1740990903073	-2.2888184E-4	
1740990903074	-0.008163452	
1740990903075	-0.0051116943	
1740990903076	-0.005569458	
1740990903077	-0.009613037	
1740990903078	-0.0046539307	
1740990903079	0.0023651123	
1740990903080	0.002670288	
1740990903081	0.006942749	
1740990903082	0.010375977	
1740990903083	0.0012969971	
1740990903084	0.0073242188	
1740990903085	0.0146484375	
1740990903086	0.013046265	
1740990903087	0.025177002	
1740990903088	0.025100708	
1740990903089	0.019302368	
1740990903090	0.026626587	
1740990903091	0.02166748	
1740990903092	0.0077056885	
1740990903093	0.005340576	
1740990903094	0.01083374	
1740990903095	0.020446777	
1740990903096	0.020446777	
1740990903097	0.0020599365	
1740990903098	-0.0104522705	
1740990903099	-0.0063323975	
1740990903100	-0.0010681152	
1740990903101	-0.0034332275	
1740990903102	-0.0037384033	
1740990903103	-0.0010681152	
1740990903104	-0.011291504	
1740990903105	-0.012817383	
1740990903106	-0.006866455	
1740990903107	-0.01121521	
1740990903108	-0.017547607	
1740990903109	-0.020370483	
1740990903110	-0.017852783	
1740990903111	-0.018463135	
1740990903112	-0.013961792	
1740990903113	-0.009689331	
1740990903114	-0.009155273	
1740990903115	-0.0025177002	
1740990903116	0.00289917	
1740990903117	-0.0031280518	
1740990903118	-0.009841919	
1740990903119	-3.8146973E-4	
1740990903120	7.6293945E-4	
1740990903121	-0.001449585	
1740990903122	-0.0015258789	
1740990903123	-0.008926392	
1740990903124	0.006942749	
1740990903125	0.014801025	
1740990903126	0.008544922	
1740990903127	0.012435913	
1740990903128	0.0104522705	
1740990903129	-0.0012969971	
1740990903130	-0.002822876	
1740990903131	-0.004196167	
1740990903132	3.8146973E-4	
1740990903133	0.0065612793	
1740990903134	0.0033569336	
1740990903135	0.006866455	
1740990903136	0.0118255615	
1740990903137	0.007247925	
1740990903138	0.008773804	
1740990903139	0.012969971	
1740990903140	0.012359619	
1740990903141	0.009002686	
1740990903142	0.0025939941	
1740990903143	-0.008087158	
1740990903144	-0.018310547	
1740990903145	-0.0132751465	
1740990903146	-0.01335144	
1740990903147	-0.01701355	
1740990903148	-0.010299683	
1740990903149	-0.01335144	
1740990903150	-0.010528564	
1740990903151	-0.014343262	
1740990903152	-0.015411377	
1740990903153	-0.0050354004	
1740990903154	-0.005645752	
1740990903155	0.0048828125	
1740990903156	0.006942749	
1740990903157	0.008239746	
1740990903158	0.020751953	
1740990903159	0.016098022	
1740990903160	0.01159668	
1740990903161	0.013122559	
1740990903162	0.014266968	
1740990903163	0.0035858154	
1740990903164	-0.0045776367	
1740990903165	-0.0015258789	
1740990903166	-6.1035156E-4	
1740990903167	-0.004272461	
1740990903168	-0.009460449	
1740990903169	-0.0051879883	
1740990903170	-0.0074768066	
1740990903171	-0.0017547607	
1740990903172	0.0035858154	
1740990903173	-0.0047302246	
1740990903174	0.0030517578	
1740990903175	0.0050354004	
1740990903176	6.866455E-4	
1740990903177	0.0012969971	
1740990903178	0.0020599365	
1740990903179	-0.0024414062	
1740990903180	5.340576E-4	
1740990903181	0.007095337	
1740990903182	0.011138916	
1740990903183	0.0061035156	
1740990903184	0.012512207	
1740990903185	0.011520386	
1740990903186	0.0064086914	
1740990903187	0.005493164	
1740990903188	0.0046539307	
1740990903189	0.012969971	
1740990903190	0.01701355	
1740990903191	0.0049591064	
1740990903192	-0.0074005127	
1740990903193	-0.0074768066	
1740990903194	-0.00541687	
1740990903195	-0.0038146973	
1740990903196	-0.003967285	
1740990903197	0.0022888184	
1740990903198	-0.0048828125	
1740990903199	-0.014877319	
1740990903200	-0.010223389	
1740990903201	-0.014877319	
1740990903202	-0.017852783	
1740990903203	-0.018692017	
1740990903204	-0.022964478	
1740990903205	-0.025177002	
1740990903206	-0.024795532	
1740990903207	-0.021972656	
1740990903208	-0.02319336	
1740990903209	-0.017547607	
1740990903210	-0.019454956	
1740990903211	-0.027694702	
1740990903212	-0.010604858	
1740990903213	0.0119018555	
1740990903214	0.019683838	
1740990903215	0.0315094	
1740990903216	0.037765503	
1740990903217	0.0289917	
1740990903218	0.023803711	
1740990903219	0.022659302	
1740990903220	0.017471313	
1740990903221	0.014953613	
1740990903222	0.012207031	
1740990903223	0.0074005127	
1740990903224	0.0074768066	
1740990903225	0.0021362305	
1740990903226	-0.004043579	
1740990903227	0.0011444092	
1740990903228	0.0018310547	
1740990903229	0.0021362305	
1740990903230	0.011138916	
1740990903231	0.014801025	
1740990903232	0.013961792	
1740990903233	0.012893677	
1740990903234	0.013656616	
1740990903235	0.011062622	
1740990903236	-5.340576E-4	
1740990903237	-0.00869751	
1740990903238	-0.019760132	
1740990903239	-0.031204224	
1740990903240	-0.028762817	
1740990903241	-0.020217896	
1740990903242	-0.013122559	
1740990903243	-0.0074768066	
1740990903244	-0.0035858154	
1740990903245	-0.005340576	
1740990903246	-0.00869751	
1740990903247	-0.008850098	
1740990903248	-2.2888184E-4	
1740990903249	0.0037384033	
1740990903250	-8.392334E-4	
1740990903251	-4.5776367E-4	
1740990903252	-0.0032043457	
1740990903253	7.6293945E-5	
1740990903254	0.004272461	
1740990903255	-0.0020599365	
1740990903256	-0.005493164	
1740990903257	-0.00289917	
1740990903258	-4.5776367E-4	
1740990903259	0.0032043457	
1740990903260	0.0063323975	
1740990903261	0.004425049	
1740990903262	0.0051116943	
1740990903263	0.010375977	
1740990903264	0.01335144	
1740990903265	0.013809204	
1740990903266	0.0030517578	
1740990903267	-0.005493164	
1740990903268	0.004272461	
1740990903269	0.012130737	
1740990903270	0.01953125	
1740990903271	0.021133423	
1740990903272	0.012359619	
1740990903273	0.012512207	
1740990903274	0.0021362305	
1740990903275	-0.005569458	
1740990903276	-0.0032806396	
1740990903277	-0.020446777	
1740990903278	-0.029144287	
1740990903279	-0.03807068	
1740990903280	-0.0415802	
1740990903281	-0.031585693	
1740990903282	-0.027160645	
1740990903283	-0.013961792	
1740990903284	-0.011062622	
1740990903285	-0.01373291	
1740990903286	-0.005569458	
1740990903287	-0.0076293945	
1740990903288	-0.009918213	
1740990903289	-9.918213E-4	
1740990903290	0.009307861	
1740990903291	0.022964478	
1740990903292	0.034484863	
1740990903293	0.038528442	
1740990903294	0.039215088	
1740990903295	0.036468506	
1740990903296	0.03425598	
1740990903297	0.03326416	
1740990903298	0.03112793	
1740990903299	0.026550293	
1740990903300	0.017242432	
1740990903301	0.0031280518	
1740990903302	-0.00541687	
1740990903303	-0.006790161	
1740990903304	-0.012893677	
1740990903305	-0.021057129	
1740990903306	-0.022277832	
1740990903307	-0.019378662	
1740990903308	-0.020599365	
1740990903309	-0.024719238	
1740990903310	-0.021362305	
1740990903311	-0.013122559	
1740990903312	-0.010147095	
1740990903313	-0.0038909912	
1740990903314	-0.0016021729	
1740990903315	-0.0047302246	
1740990903316	-9.918213E-4	
1740990903317	-0.0048828125	
1740990903318	-0.0064086914	
1740990903319	-0.0019836426	
1740990903320	-0.0038146973	
1740990903321	-0.0037384033	
1740990903322	-0.0074768066	
1740990903323	-0.0077056885	
1740990903324	-3.8146973E-4	
1740990903325	9.918213E-4	
1740990903326	0.0063323975	
1740990903327	0.007019043	
1740990903328	-8.392334E-4	
1740990903329	-0.0017547607	
1740990903330	-0.0021362305	
1740990903331	6.1035156E-4	
1740990903332	0.00579834	
1740990903333	0.0032806396	
1740990903334	0.010604858	
1740990903335	0.020904541	
1740990903336	0.016174316	
1740990903337	0.025100708	
1740990903338	0.040283203	
1740990903339	0.025253296	
1740990903340	0.001449585	
1740990903341	-0.021820068	
1740990903342	-0.056610107	
1740990903343	-0.031967163	
1740990903344	0.01663208	
1740990903345	0.0146484375	
1740990903346	0.023880005	
1740990903347	0.016021729	
1740990903348	6.866455E-4	
1740990903349	0.01335144	
1740990903350	0.0059509277	
1740990903351	-0.001449585	
1740990903352	-0.009613037	
1740990903353	-0.020370483	
1740990903354	-0.02166748	
1740990903355	-0.017700195	
1740990903356	-0.015716553	
1740990903357	-0.03364563	
1740990903358	-0.040740967	
1740990903359	-0.038909912	
1740990903360	-0.03768921	
1740990903361	-0.018005371	
1740990903362	0.012130737	
1740990903363	0.04096985	
1740990903364	0.026321411	
1740990903365	-0.015716553	
1740990903366	-0.01083374	
1740990903367	0.010910034	
1740990903368	0.016708374	
1740990903369	0.019454956	
1740990903370	0.017547607	
1740990903371	0.034484863	
1740990903372	0.034713745	
1740990903373	0.01121521	
1740990903374	0.0045776367	
1740990903375	-0.024719238	
1740990903376	-0.037460327	
1740990903377	-0.0012969971	
1740990903378	0.02067566	
1740990903379	0.01953125	
1740990903380	0.0035858154	
1740990903381	-0.017623901	
1740990903382	-0.0021362305	
1740990903383	0.016784668	
1740990903384	0.023117065	
1740990903385	0.03227234	
1740990903386	0.012512207	
1740990903387	9.1552734E-4	
1740990903388	0.009841919	
1740990903389	0.005722046	
1740990903390	0.007171631	
1740990903391	0.014343262	
1740990903392	0.014038086	
1740990903393	0.0033569336	
1740990903394	0.0020599365	
1740990903395	0.009918213	
1740990903396	0.010681152	
1740990903397	0.0016021729	
1740990903398	-0.015258789	
1740990903399	-0.038909912	
1740990903400	-0.06752014	
1740990903401	-0.05958557	
1740990903402	-0.046691895	
1740990903403	-0.041275024	
1740990903404	0.006790161	
1740990903405	0.017242432	
1740990903406	-0.0065612793	
1740990903407	9.1552734E-4	
1740990903408	0.015411377	
1740990903409	0.031280518	
1740990903410	0.013198853	
1740990903411	-9.1552734E-4	
1740990903412	0.0022125244	
1740990903413	0.00541687	
1740990903414	0.023345947	
1740990903415	0.026473999	
1740990903416	0.027542114	
1740990903417	0.025939941	
1740990903418	0.009002686	
1740990903419	-0.005493164	
1740990903420	-0.008392334	
1740990903421	-0.008926392	
1740990903422	-0.022125244	
1740990903423	-0.02960205	
1740990903424	-0.017700195	
1740990903425	-0.0038909912	
1740990903426	0.007095337	
1740990903427	0.009155273	
1740990903428	0.009918213	
1740990903429	0.008392334	
1740990903430	-0.0038146973	
1740990903431	-0.0077056885	
1740990903432	-0.008773804	
1740990903433	-0.008544922	
1740990903434	-0.006866455	
1740990903435	-0.0048065186	
1740990903436	0.0024414062	
1740990903437	-0.0049591064	
1740990903438	-0.009307861	
1740990903439	2.2888184E-4	
1740990903440	-0.0035095215	
1740990903441	-0.0118255615	
1740990903442	-0.008773804	
1740990903443	-0.057678223	
1740990903444	-0.089645386	
1740990903445	0.013198853	
1740990903446	0.043411255	
1740990903447	0.0064086914	
1740990903448	0.04371643	
1740990903449	0.036621094	
1740990903450	0.020828247	
1740990903451	0.01777649	
1740990903452	9.918213E-4	
1740990903453	0.015792847	
1740990903454	0.03540039	
1740990903455	0.06774902	
1740990903456	0.07575989	
1740990903457	0.030517578	
1740990903458	0.0019836426	
1740990903459	-0.006790161	
1740990903460	-0.08430481	
1740990903461	-0.18463135	
1740990903462	-0.08720398	
1740990903463	0.032424927	
1740990903464	-0.057373047	
1740990903465	-0.01625061	
1740990903466	0.088653564	
1740990903467	0.054092407	
1740990903468	0.049819946	
1740990903469	0.04447937	
1740990903470	0.03326416	
1740990903471	0.032730103	
1740990903472	0.017242432	
1740990903473	0.018615723	
1740990903474	0.009994507	
1740990903475	0.0046539307	
1740990903476	7.6293945E-5	
1740990903477	-0.012512207	
1740990903478	-0.011138916	
1740990903479	-0.02281189	
1740990903480	-0.033111572	
1740990903481	-0.03036499	
1740990903482	-0.03288269	
1740990903483	-0.030670166	
1740990903484	-0.02998352	
1740990903485	-0.023498535	
1740990903486	-0.01739502	
1740990903487	-0.027999878	
1740990903488	-0.027313232	
1740990903489	-0.013122559	
1740990903490	9.1552734E-4	
1740990903491	0.015411377	
1740990903492	0.026473999	
1740990903493	0.03555298	
1740990903494	0.039901733	
1740990903495	0.03692627	
1740990903496	0.037994385	
1740990903497	0.029754639	
1740990903498	0.010223389	
1740990903499	0.0075531006	
1740990903500	0.007095337	
1740990903501	0.0019836426	
1740990903502	-0.006713867	
1740990903503	-0.015792847	
1740990903504	-0.014877319	
1740990903505	-0.016021729	
1740990903506	-0.012359619	
1740990903507	0.0020599365	
1740990903508	0.005340576	
1740990903509	0.0021362305	
1740990903510	-0.005340576	
1740990903511	-0.021209717	
1740990903512	-0.022506714	
1740990903513	-0.01991272	
1740990903514	-0.012741089	
1740990903515	2.2888184E-4	
1740990903516	-0.0025177002	
1740990903517	0.004425049	
1740990903518	-0.0017547607	
1740990903519	-0.018234253	
1740990903520	-0.005340576	
1740990903521	-0.0022125244	
1740990903522	-3.0517578E-4	
1740990903523	0.01625061	
1740990903524	0.022125244	
1740990903525	0.025405884	
1740990903526	0.016174316	
1740990903527	-0.0034332275	
1740990903528	-0.004119873	
1740990903529	-0.004348755	
1740990903530	-0.014266968	
1740990903531	-0.020370483	
1740990903532	-0.016403198	
1740990903533	-0.015258789	
1740990903534	-0.017242432	
1740990903535	-0.008621216	
1740990903536	-0.0045776367	
1740990903537	0.0019073486	
1740990903538	0.0118255615	
1740990903539	0.017852783	
1740990903540	0.024032593	
1740990903541	0.029144287	
1740990903542	0.031814575	
1740990903543	0.03250122	
1740990903544	0.036392212	
1740990903545	0.037765503	
1740990903546	0.031967163	
1740990903547	0.02746582	
1740990903548	0.019454956	
1740990903549	0.012130737	
1740990903550	0.0032043457	
1740990903551	-0.014877319	
1740990903552	-0.024261475	
1740990903553	-0.024261475	
1740990903554	-0.023269653	
1740990903555	-0.025863647	
1740990903556	-0.028076172	
1740990903557	-0.027313232	
1740990903558	-0.030822754	
1740990903559	-0.025024414	
1740990903560	-0.028533936	
1740990903561	-0.044403076	
1740990903562	-0.03440857	
1740990903563	-0.025634766	
1740990903564	-0.025787354	
1740990903565	-0.012435913	
1740990903566	0.00289917	
1740990903567	7.6293945E-5	
1740990903568	-0.019683838	
1740990903569	-0.011367798	
1740990903570	0.0010681152	
1740990903571	-0.006713867	
1740990903572	-0.0025177002	
1740990903573	-0.0049591064	
1740990903574	-0.0011444092	
1740990903575	0.026473999	
1740990903576	0.03677368	
1740990903577	0.033798218	
1740990903578	0.033416748	
1740990903579	0.034332275	
1740990903580	0.037765503	
1740990903581	0.042419434	
1740990903582	0.045318604	
1740990903583	0.03715515	
1740990903584	0.024261475	
1740990903585	0.016860962	
1740990903586	0.016937256	
1740990903587	0.015640259	
1740990903588	0.00831604	
1740990903589	0.0064849854	
1740990903590	-0.0021362305	
1740990903591	-0.013656616	
1740990903592	-0.016479492	
1740990903593	-0.032958984	
1740990903594	-0.051651	
1740990903595	-0.046920776	
1740990903596	-0.028533936	
1740990903597	-0.016174316	
1740990903598	-0.0050354004	
1740990903599	0.009994507	
1740990903600	0.012588501	
1740990903601	0.00831604	
1740990903602	8.392334E-4	
1740990903603	-0.013046265	
1740990903604	-0.021057129	
1740990903605	-0.021133423	
1740990903606	-0.015640259	
1740990903607	-0.018615723	
1740990903608	-0.020065308	
1740990903609	0.0035858154	
1740990903610	0.028839111	
1740990903611	0.020980835	
1740990903612	-0.008850098	
1740990903613	-0.008087158	
1740990903614	0.0021362305	
1740990903615	0.002822876	
1740990903616	0.011672974	
1740990903617	0.01121521	
1740990903618	-0.004196167	
1740990903619	-0.017852783	
1740990903620	-0.023117065	
1740990903621	-0.015716553	
1740990903622	0.015106201	
1740990903623	0.040359497	
1740990903624	0.036087036	
1740990903625	0.020523071	
1740990903626	-0.0015258789	
1740990903627	-0.012359619	
1740990903628	-0.012054443	
1740990903629	-0.0048828125	
1740990903630	0.0073242188	
1740990903631	7.6293945E-4	
1740990903632	0.0061798096	
1740990903633	0.016403198	
1740990903634	0.0074768066	
1740990903635	0.0032806396	
1740990903636	-1.5258789E-4	
1740990903637	-0.0030517578	
1740990903638	0.008392334	
1740990903639	0.011138916	
1740990903640	0.009536743	
1740990903641	0.004272461	
1740990903642	-0.006713867	
1740990903643	-0.016708374	
1740990903644	-0.033950806	
1740990903645	-0.041275024	
1740990903646	-0.039596558	
1740990903647	-0.036087036	
1740990903648	-0.037384033	
1740990903649	-0.029220581	
1740990903650	0.0019836426	
1740990903651	0.032424927	
1740990903652	0.04020691	
1740990903653	0.050811768	
1740990903654	0.05683899	
1740990903655	0.048446655	
1740990903656	0.026626587	
1740990903657	0.009460449	
1740990903658	7.6293945E-4	
1740990903659	-0.012359619	
1740990903660	-0.014419556	
1740990903661	-0.010757446	
1740990903662	-9.1552734E-4	
1740990903663	0.005874634	
1740990903664	-9.918213E-4	
1740990903665	-0.013580322	
1740990903666	-0.026473999	
1740990903667	-0.04096985	
1740990903668	-0.040359497	
1740990903669	-0.016937256	
1740990903670	-0.0035858154	
1740990903671	0.007019043	
1740990903672	0.020446777	
1740990903673	0.027923584	
1740990903674	0.01991272	
1740990903675	-0.0076293945	
1740990903676	-0.022201538	
1740990903677	-0.01838684	
1740990903678	0.00579834	
1740990903679	0.032196045	
1740990903680	0.033340454	
1740990903681	0.02532959	
1740990903682	0.013656616	
1740990903683	0.009384155	
1740990903684	0.005264282	
1740990903685	-0.005340576	
1740990903686	-0.004119873	
1740990903687	-0.010757446	
1740990903688	-0.03807068	
1740990903689	-0.053329468	
1740990903690	-0.05088806	
1740990903691	-0.042114258	
1740990903692	-0.023880005	
1740990903693	-0.014572144	
1740990903694	-0.0104522705	
1740990903695	-0.0011444092	
1740990903696	-0.0017547607	
1740990903697	-0.0012207031	
1740990903698	0.005874634	
1740990903699	0.010986328	
1740990903700	0.012588501	
1740990903701	0.023956299	
1740990903702	0.04234314	
1740990903703	0.03730774	
1740990903704	0.026626587	
1740990903705	0.025558472	
1740990903706	0.025558472	
1740990903707	0.02998352	
1740990903708	0.027008057	
1740990903709	0.028686523	
1740990903710	0.03501892	
1740990903711	0.026855469	
1740990903712	0.014801025	
1740990903713	0.013427734	
1740990903714	0.0118255615	
1740990903715	-0.0025939941	
1740990903716	-0.022583008	
1740990903717	-0.03730774	
1740990903718	-0.045318604	
1740990903719	-0.04798889	
1740990903720	-0.043640137	
1740990903721	-0.03982544	
1740990903722	-0.031433105	
1740990903723	-0.024490356	
1740990903724	-0.029907227	
1740990903725	-0.018005371	
1740990903726	-8.392334E-4	
1740990903727	-0.0022888184	
1740990903728	0.0023651123	
1740990903729	0.0035858154	
1740990903730	0.003967285	
1740990903731	0.0038909912	
1740990903732	-2.2888184E-4	
1740990903733	0.013046265	
1740990903734	0.02166748	
1740990903735	0.010681152	
1740990903736	0.0031280518	
1740990903737	0.012893677	
1740990903738	0.016708374	
1740990903739	-0.002746582	
1740990903740	-0.00289917	
1740990903741	0.026245117	
1740990903742	0.025634766	
1740990903743	0.024337769	
1740990903744	0.025634766	
1740990903745	0.0035858154	
1740990903746	-0.011291504	
1740990903747	-2.2888184E-4	
1740990903748	0.0146484375	
1740990903749	0.010757446	
1740990903750	-0.015029907	
1740990903751	-0.028915405	
1740990903752	-0.019378662	
1740990903753	0.0022888184	
1740990903754	0.007858276	
1740990903755	0.0051879883	
1740990903756	0.011062622	
1740990903757	-0.005264282	
1740990903758	-0.030288696	
1740990903759	-0.027770996	
1740990903760	-0.021743774	
1740990903761	-0.023880005	
1740990903762	0.0021362305	
1740990903763	0.03807068	
1740990903764	0.038604736	
1740990903765	0.022201538	
1740990903766	0.0022125244	
1740990903767	-0.011367798	
1740990903768	-0.01953125	
1740990903769	-0.022277832	
1740990903770	-0.021438599	
1740990903771	-0.03227234	
1740990903772	-0.025787354	
1740990903773	-0.011291504	
1740990903774	-0.014038086	
1740990903775	-0.017471313	
1740990903776	-0.03036499	
1740990903777	-0.032577515	
1740990903778	-0.034713745	
1740990903779	-0.051498413	
1740990903780	-0.046081543	
1740990903781	-0.042266846	
1740990903782	-0.030975342	
1740990903783	0.0033569336	
1740990903784	0.029296875	
1740990903785	0.05241394	
1740990903786	0.062561035	
1740990903787	0.06828308	
1740990903788	0.080947876	
1740990903789	0.07286072	
1740990903790	0.058517456	
1740990903791	0.05630493	
1740990903792	0.05859375	
1740990903793	0.055923462	
1740990903794	0.051956177	
1740990903795	0.05783081	
1740990903796	0.055618286	
1740990903797	0.041656494	
1740990903798	0.011291504	
1740990903799	-0.016937256	
1740990903800	-0.016479492	
1740990903801	-0.016937256	
1740990903802	-0.027923584	
1740990903803	-0.02784729	
1740990903804	-0.016098022	
1740990903805	-0.013961792	
1740990903806	-0.025024414	
1740990903807	-0.04348755	
1740990903808	-0.03540039	
1740990903809	-0.0289917	
1740990903810	-0.053634644	
1740990903811	-0.06652832	
1740990903812	-0.072250366	
1740990903813	-0.06530762	
1740990903814	-0.049057007	
1740990903815	-0.042495728	
1740990903816	-0.047073364	
1740990903817	-0.06790161	
1740990903818	-0.06820679	
1740990903819	-0.04890442	
1740990903820	-0.03364563	
1740990903821	-0.0045776367	
1740990903822	0.011749268	
1740990903823	0.0025177002	
1740990903824	0.009765625	
1740990903825	0.037384033	
1740990903826	0.055236816	
1740990903827	0.051879883	
1740990903828	0.040359497	
1740990903829	0.033340454	
1740990903830	0.03303528	
1740990903831	0.03265381	
1740990903832	0.031967163	
1740990903833	0.036392212	
1740990903834	0.06790161	
1740990903835	0.09246826	
1740990903836	0.07720947	
1740990903837	0.04234314	
1740990903838	0.01121521	
1740990903839	7.6293945E-4	
1740990903840	-6.866455E-4	
1740990903841	-0.009536743	
1740990903842	-0.008773804	
1740990903843	-0.0015258789	
1740990903844	-0.0045776367	
1740990903845	-0.0035858154	
1740990903846	-0.004272461	
1740990903847	-0.017166138	
1740990903848	-0.013885498	
1740990903849	-0.0011444092	
1740990903850	-0.021591187	
1740990903851	-0.005722046	
1740990903852	0.022583008	
1740990903853	-0.01373291	
1740990903854	-0.031967163	
1740990903855	-0.021743774	
1740990903856	-0.01739502	
1740990903857	-0.017700195	
1740990903858	-0.035705566	
1740990903859	-0.041046143	
1740990903860	-0.03578186	
1740990903861	-0.030670166	
1740990903862	-0.00793457	
1740990903863	0.019607544	
1740990903864	0.004043579	
1740990903865	-0.027923584	
1740990903866	-0.023345947	
1740990903867	-0.0074005127	
1740990903868	-0.001373291	
1740990903869	-0.022277832	
1740990903870	-0.046463013	
1740990903871	-0.028152466	
1740990903872	0.025024414	
1740990903873	0.057525635	
1740990903874	0.04234314	
1740990903875	0.03578186	
1740990903876	0.0020599365	
1740990903877	-0.014877319	
1740990903878	0.010375977	
1740990903879	-0.0077056885	
1740990903880	-0.004196167	
1740990903881	-0.003967285	
1740990903882	-0.019989014	
1740990903883	0.020065308	
1740990903884	0.03517151	
1740990903885	0.027618408	
1740990903886	0.03364563	
1740990903887	0.01663208	
1740990903888	0.017471313	
1740990903889	0.032043457	
1740990903890	0.012664795	
1740990903891	-0.004119873	
1740990903892	0.006942749	
1740990903893	-2.2888184E-4	
1740990903894	-0.015106201	
1740990903895	-0.019607544	
1740990903896	-0.024490356	
1740990903897	-0.005874634	
1740990903898	0.020141602	
1740990903899	0.029220581	
1740990903900	0.025863647	
1740990903901	-0.018157959	
1740990903902	-0.04776001	
1740990903903	-0.028762817	
1740990903904	-0.025024414	
1740990903905	-0.0390625	
1740990903906	-0.03677368	
1740990903907	-0.020828247	
1740990903908	-0.011291504	
1740990903909	-0.016555786	
1740990903910	-0.013580322	
1740990903911	0.004425049	
1740990903912	0.050582886	
1740990903913	0.10307312	
1740990903914	0.11856079	
1740990903915	0.06744385	
1740990903916	-0.0051879883	
1740990903917	-0.018234253	
1740990903918	-0.03715515	
1740990903919	-0.061569214	
1740990903920	-0.04623413	
1740990903921	-0.04623413	
1740990903922	-0.05027771	
1740990903923	-0.018920898	
1740990903924	9.1552734E-4	
1740990903925	0.043945312	
1740990903926	0.078048706	
1740990903927	7.6293945E-4	
1740990903928	-0.066986084	
1740990903929	-0.071640015	
1740990903930	-0.0579834	
1740990903931	-0.030975342	
1740990903932	-0.011062622	
1740990903933	0.055160522	
1740990903934	0.0894928	
1740990903935	0.05104065	
1740990903936	0.06149292	
1740990903937	0.04837036	
1740990903938	-0.012359619	
1740990903939	-0.033798218	
1740990903940	-0.023880005	
1740990903941	0.0025177002	
1740990903942	7.6293945E-5	
1740990903943	-0.008773804	
1740990903944	0.009155273	
1740990903945	-0.03517151	
1740990903946	-0.10902405	
1740990903947	-0.041732788	
1740990903948	0.06401062	
1740990903949	0.039215088	
1740990903950	0.012359619	
1740990903951	-0.03112793	
1740990903952	-0.04989624	
1740990903953	0.034942627	
1740990903954	0.0073242188	
1740990903955	-0.056381226	
1740990903956	-0.058288574	
1740990903957	-0.047912598	
1740990903958	-0.029067993	
1740990903959	0.020904541	
1740990903960	0.14297485	
1740990903961	0.09086609	
1740990903962	0.036697388	
1740990903963	0.14076233	
1740990903964	0.082092285	
1740990903965	0.043640137	
1740990903966	0.056762695	
1740990903967	-0.030288696	
1740990903968	0.033798218	
1740990903969	0.064086914	
1740990903970	-0.09086609	
1740990903971	-0.21736145	
1740990903972	-0.19126892	
1740990903973	-0.058670044	
1740990903974	-0.11238098	
1740990903975	-0.05760193	
1740990903976	0.093307495	
1740990903977	-0.03288269	
1740990903978	-0.02998352	
1740990903979	0.046310425	
1740990903980	0.014419556	
1740990903981	-0.03074646	
1740990903982	-0.15968323	
1740990903983	-0.06637573	
1740990903984	0.14541626	
1740990903985	0.13496399	
1740990903986	0.08407593	
1740990903987	0.044631958	
1740990903988	0.106277466	
1740990903989	0.21766663	
1740990903990	0.1158905	
1740990903991	-0.016326904	
1740990903992	-0.025405884	
1740990903993	-0.010757446	
1740990903994	-0.0894928	
1740990903995	-0.21308899	
1740990903996	-0.14656067	
1740990903997	-0.07797241	
1740990903998	-0.09887695	
1740990903999	0.046920776	
1740990904000	0.16365051	
1740990904001	0.14167786	
1740990904002	0.13389587	
1740990904003	0.15457153	
1740990904004	0.15716553	
1740990904005	0.0717926	
1740990904006	-0.060043335	
1740990904007	-0.23910522	
1740990904008	-0.22117615	
1740990904009	-0.010299683	
1740990904010	-0.15457153	
1740990904011	-0.313797	
1740990904012	-0.11276245	
1740990904013	0.055923462	
1740990904014	0.037384033	
1740990904015	-0.0074768066	
1740990904016	0.09567261	
1740990904017	0.16578674	
1740990904018	0.04714966	
1740990904019	0.06034851	
1740990904020	0.16555786	
1740990904021	0.12023926	
1740990904022	-0.019683838	
1740990904023	-0.12550354	
1740990904024	-0.10551453	
1740990904025	-0.07774353	
1740990904026	-0.012054443	
1740990904027	0.05821228	
1740990904028	0.050201416	
1740990904029	0.11917114	
1740990904030	0.11756897	
1740990904031	-0.066604614	
1740990904032	-0.17120361	
1740990904033	-0.0029754639	
1740990904034	0.08010864	
1740990904035	-0.008392334	
1740990904036	0.08224487	
1740990904037	0.1209259	
1740990904038	0.07637024	
1740990904039	-0.029525757	
1740990904040	-0.2947235	
1740990904041	-0.291214	
1740990904042	-0.119781494	
1740990904043	-0.122299194	
1740990904044	0.0119018555	
1740990904045	0.21835327	
1740990904046	0.14854431	
1740990904047	-0.019836426	
1740990904048	-0.030441284	
1740990904049	0.025482178	
1740990904050	0.022583008	
1740990904051	0.039138794	
1740990904052	-0.03868103	
1740990904053	-0.09559631	
1740990904054	0.11383057	
1740990904055	0.24909973	
1740990904056	0.23132324	
1740990904057	0.2192688	
1740990904058	-0.027618408	
1740990904059	-0.2117157	
1740990904060	0.050354004	
1740990904061	0.22651672	
1740990904062	0.09857178	
1740990904063	0.005722046	
1740990904064	-0.09246826	
1740990904065	-0.2306366	
1740990904066	-0.29960632	
1740990904067	-0.34812927	
1740990904068	-0.23460388	
1740990904069	0.05378723	
1740990904070	0.16586304	
1740990904071	0.16838074	
1740990904072	0.06347656	
1740990904073	-0.06401062	
1740990904074	-0.021514893	
1740990904075	-0.037841797	
1740990904076	-0.070877075	
1740990904077	-0.120773315	
1740990904078	-0.15342712	
1740990904079	-0.19302368	
1740990904080	-0.2419281	
1740990904081	0.054855347	
1740990904082	0.23880005	
1740990904083	0.13496399	
1740990904084	0.2267456	
1740990904085	0.29533386	
1740990904086	0.21438599	
1740990904087	0.11878967	
1740990904088	0.13290405	
1740990904089	0.20767212	
1740990904090	0.019836426	
1740990904091	-0.1411438	
1740990904092	-0.026855469	
1740990904093	-0.09819031	
1740990904094	-0.33599854	
1740990904095	-0.2281189	
1740990904096	-0.015258789	
1740990904097	-0.07759094	
1740990904098	-0.03845215	
1740990904099	0.12199402	
1740990904100	0.17356873	
1740990904101	0.19943237	
1740990904102	0.08857727	
1740990904103	-0.014419556	
1740990904104	0.056533813	
1740990904105	0.15861511	
1740990904106	0.08857727	
1740990904107	-0.1828003	
1740990904108	-0.32188416	
1740990904109	-0.23353577	
1740990904110	-0.23094177	
1740990904111	-0.18386841	
1740990904112	0.16815186	
1740990904113	0.24330139	
1740990904114	0.0030517578	
1740990904115	-0.1398468	
1740990904116	-0.33988953	
1740990904117	-0.3025818	
1740990904118	0.12611389	
1740990904119	0.2986145	
1740990904120	0.26176453	
1740990904121	0.29884338	
1740990904122	0.119628906	
1740990904123	-0.046310425	
1740990904124	-0.131073	
1740990904125	-0.11276245	
1740990904126	-0.022354126	
1740990904127	0.0031280518	
1740990904128	0.10787964	
1740990904129	-0.0025177002	
1740990904130	0.06149292	
1740990904131	0.30639648	
1740990904132	0.16670227	
1740990904133	0.030136108	
1740990904134	-0.08804321	
1740990904135	-0.16143799	
1740990904136	-0.17219543	
1740990904137	-0.09094238	
1740990904138	0.14724731	
1740990904139	0.066604614	
1740990904140	0.034484863	
1740990904141	0.01159668	
1740990904142	-0.30807495	
1740990904143	-0.43998718	
1740990904144	-0.40679932	
1740990904145	-0.14389038	
1740990904146	0.14724731	
1740990904147	0.13648987	
1740990904148	0.20393372	
1740990904149	0.2583313	
1740990904150	0.16716003	
1740990904151	0.14801025	
1740990904152	0.13092041	
1740990904153	0.13290405	
1740990904154	0.209198	
1740990904155	0.22636414	
1740990904156	0.012283325	
1740990904157	-0.16670227	
1740990904158	-0.10551453	
1740990904159	-0.19378662	
1740990904160	-0.26374817	
1740990904161	-0.07247925	
1740990904162	0.10734558	
1740990904163	0.21125793	
1740990904164	0.065841675	
1740990904165	-0.16799927	
1740990904166	-0.04623413	
1740990904167	0.040283203	
1740990904168	-0.02319336	
1740990904169	0.08354187	
1740990904170	0.00289917	
1740990904171	-0.37849426	
1740990904172	-0.6978607	
1740990904173	-0.5467987	
1740990904174	-0.079956055	
1740990904175	0.16906738	
1740990904176	0.2418518	
1740990904177	0.15167236	
1740990904178	0.012588501	
1740990904179	0.032348633	
1740990904180	0.0818634	
1740990904181	0.20645142	
1740990904182	0.25505066	
1740990904183	0.24093628	
1740990904184	0.32310486	
1740990904185	0.32295227	
1740990904186	0.36102295	
1740990904187	0.44708252	
1740990904188	0.25482178	
1740990904189	-0.016174316	
1740990904190	0.03288269	
1740990904191	-0.11405945	
1740990904192	-0.42488098	
1740990904193	-0.37254333	
1740990904194	-0.42388916	
1740990904195	-0.50712585	
1740990904196	-0.32173157	
1740990904197	-0.077056885	
1740990904198	0.1563263	
1740990904199	0.019683838	
1740990904200	-0.30677795	
1740990904201	-0.28808594	
1740990904202	-0.041732788	
1740990904203	0.21408081	
1740990904204	0.2191925	
1740990904205	0.10910034	
1740990904206	-0.05256653	
1740990904207	-0.20957947	
1740990904208	0.15975952	
1740990904209	0.28549194	
1740990904210	-0.07888794	
1740990904211	-0.23834229	
1740990904212	-0.16159058	
1740990904213	0.21270752	
1740990904214	0.3566742	
1740990904215	0.30281067	
1740990904216	0.30708313	
1740990904217	0.15487671	
1740990904218	0.13282776	
1740990904219	0.1537323	
1740990904220	0.078201294	
1740990904221	0.018920898	
1740990904222	-0.057144165	
1740990904223	-0.06034851	
1740990904224	-0.030136108	
1740990904225	-0.10734558	
1740990904226	-0.16365051	
1740990904227	-0.18165588	
1740990904228	-0.23513794	
1740990904229	-0.182724	
1740990904230	-0.10147095	
1740990904231	-0.064315796	
1740990904232	0.046081543	
1740990904233	0.011672974	
1740990904234	-0.11299133	
1740990904235	-0.055770874	
1740990904236	-0.016937256	
1740990904237	0.034713745	
1740990904238	0.047225952	
1740990904239	0.010223389	
1740990904240	0.06317139	
1740990904241	-0.020980835	
1740990904242	-0.06965637	
1740990904243	-0.012283325	
1740990904244	-0.010528564	
1740990904245	0.02784729	
1740990904246	0.05897522	
1740990904247	0.086135864	
1740990904248	0.08872986	
1740990904249	0.029144287	
1740990904250	0.04295349	
1740990904251	0.070495605	
1740990904252	0.0065612793	
1740990904253	-0.013504028	
1740990904254	3.8146973E-4	
1740990904255	-0.0024414062	
1740990904256	0.03677368	
1740990904257	0.057296753	
1740990904258	0.09269714	
1740990904259	0.1209259	
1740990904260	0.07469177	
1740990904261	0.021896362	
1740990904262	-0.044631958	
1740990904263	-0.1586914	
1740990904264	-0.32424927	
1740990904265	-0.30151367	
1740990904266	-0.05378723	
1740990904267	0.01953125	
1740990904268	0.018005371	
1740990904269	0.066986084	
1740990904270	0.05455017	
1740990904271	0.067977905	
1740990904272	0.06111145	
1740990904273	0.04333496	
1740990904274	0.050201416	
1740990904275	0.03189087	
1740990904276	0.026321411	
1740990904277	0.015487671	
1740990904278	-0.0012969971	
1740990904279	-0.009841919	
1740990904280	-0.024719238	
1740990904281	-0.018005371	
1740990904282	-0.012817383	
1740990904283	-0.011367798	
1740990904284	-0.0019836426	
1740990904285	-0.006713867	
1740990904286	-0.004348755	
1740990904287	0.0012207031	
1740990904288	0.004119873	
1740990904289	0.010681152	
1740990904290	0.006713867	
1740990904291	0.010070801	
1740990904292	0.018463135	
1740990904293	0.008621216	
1740990904294	0.009918213	
1740990904295	0.018234253	
