# OpenSignals Text File Format
# {"00:80:E1:26:9F:85":{"sensor":["EMG"],"device name":"00:80:E1:26:9F:85","column":["timestamp","EMG"],"sync interval":2,"time":"09:34:59","comments":"","keywords":"","device connection":"BLE00:80:E1:26:9F:85","channels":[0],"date":"2025-03-03","mode":0,"digital IO":[],"firmware version":259,"device":"musclebanplux","position":0,"sampling rate":1000,"label":["EMG"],"resolution":[16],"special":[{}],"sleeve color":["UNKNOWN"]}}
# EndOfHeader
1740990899939	0.021820068	
1740990899940	-0.0033569336	
1740990899941	-0.024032593	
1740990899942	-0.01739502	
1740990899943	-0.063705444	
1740990899944	-0.06591797	
1740990899945	-0.02532959	
1740990899946	-0.047607422	
1740990899947	-0.05683899	
1740990899948	-0.03616333	
1740990899949	0.0119018555	
1740990899950	0.053024292	
1740990899951	0.02822876	
1740990899952	0.048828125	
1740990899953	0.06996155	
1740990899954	-0.0038909912	
1740990899955	-0.056915283	
1740990899956	-0.055999756	
1740990899957	-0.0035858154	
1740990899958	0.06278992	
1740990899959	0.09269714	
1740990899960	0.110321045	
1740990899961	0.03303528	
1740990899962	-0.10505676	
1740990899963	-0.09376526	
1740990899964	0.056381226	
1740990899965	0.16937256	
1740990899966	0.15014648	
1740990899967	0.10101318	
1740990899968	0.049591064	
1740990899969	-0.0466156	
1740990899970	-0.10116577	
1740990899971	-0.12763977	
1740990899972	-0.11985779	
1740990899973	-0.08735657	
1740990899974	-0.032730103	
1740990899975	-0.015945435	
1740990899976	-0.07865906	
1740990899977	-0.059051514	
1740990899978	-0.037078857	
1740990899979	-0.040512085	
1740990899980	0.024719238	
1740990899981	0.051498413	
1740990899982	0.039901733	
1740990899983	0.026779175	
1740990899984	0.0019073486	
1740990899985	-0.06286621	
1740990899986	-0.08590698	
1740990899987	0.009536743	
1740990899988	0.081100464	
1740990899989	0.14572144	
1740990899990	0.20774841	
1740990899991	0.090408325	
1740990899992	-0.040740967	
1740990899993	-0.037994385	
1740990899994	-0.05340576	
1740990899995	-0.047683716	
1740990899996	-0.034942627	
1740990899997	-0.03845215	
1740990899998	-0.00579834	
1740990899999	0.027923584	
1740990900000	0.10398865	
1740990900001	0.10948181	
1740990900002	-0.030822754	
1740990900003	-0.09338379	
1740990900004	-0.064315796	
1740990900005	-0.041809082	
1740990900006	0.037994385	
1740990900007	0.08514404	
1740990900008	0.04058838	
1740990900009	-0.0132751465	
1740990900010	-0.04508972	
1740990900011	-0.052871704	
1740990900012	-0.086517334	
1740990900013	-0.12763977	
1740990900014	-0.09681702	
1740990900015	-0.022659302	
1740990900016	0.03768921	
1740990900017	0.10261536	
1740990900018	0.11924744	
1740990900019	0.044403076	
1740990900020	-0.01335144	
1740990900021	-0.018157959	
1740990900022	-0.022888184	
1740990900023	-0.024337769	
1740990900024	1.5258789E-4	
1740990900025	0.009231567	
1740990900026	0.030822754	
1740990900027	0.057373047	
1740990900028	-9.1552734E-4	
1740990900029	-0.033340454	
1740990900030	-0.024719238	
1740990900031	-0.03829956	
1740990900032	-0.024261475	
1740990900033	-0.016403198	
1740990900034	0.002822876	
1740990900035	0.033111572	
1740990900036	0.05958557	
1740990900037	0.079193115	
1740990900038	0.035629272	
1740990900039	-1.5258789E-4	
1740990900040	-0.01083374	
1740990900041	-0.053100586	
1740990900042	-0.044784546	
1740990900043	0.0	
1740990900044	-0.017242432	
1740990900045	-0.033187866	
1740990900046	0.025939941	
1740990900047	0.0756073	
1740990900048	0.03227234	
1740990900049	-0.02571106	
1740990900050	-0.041046143	
1740990900051	-0.047531128	
1740990900052	-0.028381348	
1740990900053	-0.028686523	
1740990900054	-0.06317139	
1740990900055	-0.03791809	
1740990900056	0.03578186	
1740990900057	0.08895874	
1740990900058	0.08834839	
1740990900059	0.08621216	
1740990900060	0.072631836	
1740990900061	0.023803711	
1740990900062	1.5258789E-4	
1740990900063	-0.027999878	
1740990900064	-0.04081726	
1740990900065	-0.038909912	
1740990900066	-0.053100586	
1740990900067	-0.054855347	
1740990900068	-0.073013306	
1740990900069	-0.072784424	
1740990900070	-0.03768921	
1740990900071	0.010223389	
1740990900072	0.07324219	
1740990900073	0.064468384	
1740990900074	0.0064086914	
1740990900075	-0.013961792	
1740990900076	-0.049057007	
1740990900077	-0.07247925	
1740990900078	-0.024795532	
1740990900079	0.029144287	
1740990900080	0.07354736	
1740990900081	0.116882324	
1740990900082	0.08041382	
1740990900083	0.002746582	
1740990900084	-0.008544922	
1740990900085	-0.011978149	
1740990900086	-0.017623901	
1740990900087	-0.0010681152	
1740990900088	-0.005340576	
1740990900089	8.392334E-4	
1740990900090	3.0517578E-4	
1740990900091	-0.028381348	
1740990900092	-0.036621094	
1740990900093	-0.030059814	
1740990900094	-0.025863647	
1740990900095	-0.02784729	
1740990900096	-0.046310425	
1740990900097	-0.05180359	
1740990900098	-0.0017547607	
1740990900099	0.043640137	
1740990900100	0.061035156	
1740990900101	0.110702515	
1740990900102	0.10726929	
1740990900103	-0.002746582	
1740990900104	-0.09643555	
1740990900105	-0.11581421	
1740990900106	-0.07072449	
1740990900107	0.041885376	
1740990900108	0.1612091	
1740990900109	0.19332886	
1740990900110	0.07949829	
1740990900111	-0.03982544	
1740990900112	-0.03929138	
1740990900113	-0.049209595	
1740990900114	-0.08857727	
1740990900115	-0.09307861	
1740990900116	-0.0793457	
1740990900117	-0.047531128	
1740990900118	-0.025253296	
1740990900119	-0.013427734	
1740990900120	-0.004425049	
1740990900121	-0.0035095215	
1740990900122	0.0051879883	
1740990900123	0.0024414062	
1740990900124	0.0029754639	
1740990900125	-7.6293945E-5	
1740990900126	-0.042648315	
1740990900127	-0.07392883	
1740990900128	-0.03692627	
1740990900129	0.038604736	
1740990900130	0.13313293	
1740990900131	0.2242279	
1740990900132	0.15739441	
1740990900133	0.0030517578	
1740990900134	-0.019760132	
1740990900135	-0.010528564	
1740990900136	-0.031967163	
1740990900137	-0.03463745	
1740990900138	-0.04447937	
1740990900139	-0.04837036	
1740990900140	-0.046539307	
1740990900141	-0.059661865	
1740990900142	-0.08331299	
1740990900143	-0.07003784	
1740990900144	-0.022125244	
1740990900145	0.026626587	
1740990900146	0.11428833	
1740990900147	0.12435913	
1740990900148	0.0	
1740990900149	-0.03364563	
1740990900150	0.047607422	
1740990900151	0.08453369	
1740990900152	0.061187744	
1740990900153	0.0012207031	
1740990900154	-0.07537842	
1740990900155	-0.086517334	
1740990900156	-0.056762695	
1740990900157	-0.06378174	
1740990900158	-0.037765503	
1740990900159	-0.016937256	
1740990900160	-0.011672974	
1740990900161	0.0077819824	
1740990900162	-0.013046265	
1740990900163	-0.0031280518	
1740990900164	0.009384155	
1740990900165	0.002670288	
1740990900166	0.02456665	
1740990900167	0.030593872	
1740990900168	0.026931763	
1740990900169	0.037612915	
1740990900170	0.037994385	
1740990900171	0.024795532	
1740990900172	0.022888184	
1740990900173	0.007019043	
1740990900174	-0.019760132	
1740990900175	-0.03540039	
1740990900176	-0.033950806	
1740990900177	-0.0048828125	
1740990900178	0.0074768066	
1740990900179	0.004119873	
1740990900180	0.00831604	
1740990900181	0.007858276	
1740990900182	-0.009689331	
1740990900183	-0.033416748	
1740990900184	-0.013504028	
1740990900185	0.016784668	
1740990900186	0.0035858154	
1740990900187	0.0077819824	
1740990900188	-0.0035858154	
1740990900189	-0.051651	
1740990900190	0.008773804	
1740990900191	0.086364746	
1740990900192	0.06416321	
1740990900193	0.06881714	
1740990900194	0.04058838	
1740990900195	-0.03227234	
1740990900196	-0.032196045	
1740990900197	-0.039215088	
1740990900198	-0.04814148	
1740990900199	-0.03555298	
1740990900200	-0.043258667	
1740990900201	-0.03211975	
1740990900202	-0.022659302	
1740990900203	-0.026168823	
1740990900204	-0.026855469	
1740990900205	-0.019302368	
1740990900206	0.0029754639	
1740990900207	-0.0118255615	
1740990900208	-0.057373047	
1740990900209	-0.04486084	
1740990900210	0.022735596	
1740990900211	0.012588501	
1740990900212	-0.06607056	
1740990900213	-0.024032593	
1740990900214	0.09277344	
1740990900215	0.18417358	
1740990900216	0.32348633	
1740990900217	0.30288696	
1740990900218	0.047607422	
1740990900219	-0.116882324	
1740990900220	-0.13061523	
1740990900221	-0.09849548	
1740990900222	-0.07392883	
1740990900223	-0.0029754639	
1740990900224	0.08522034	
1740990900225	-0.009231567	
1740990900226	-0.10429382	
1740990900227	-0.09963989	
1740990900228	-0.14076233	
1740990900229	-0.12901306	
1740990900230	-0.069503784	
1740990900231	-0.043258667	
1740990900232	-0.024032593	
1740990900233	-0.008163452	
1740990900234	-0.005264282	
1740990900235	-0.013198853	
1740990900236	-0.004196167	
1740990900237	0.03364563	
1740990900238	0.047302246	
1740990900239	0.039901733	
1740990900240	0.031814575	
1740990900241	0.027923584	
1740990900242	0.047225952	
1740990900243	0.06385803	
1740990900244	0.0856781	
1740990900245	0.06996155	
1740990900246	0.013656616	
1740990900247	0.008087158	
1740990900248	0.015411377	
1740990900249	0.010986328	
1740990900250	0.009231567	
1740990900251	-0.009918213	
1740990900252	-0.019607544	
1740990900253	0.004501343	
1740990900254	0.04005432	
1740990900255	0.010757446	
1740990900256	-0.056533813	
1740990900257	-0.06843567	
1740990900258	-0.037002563	
1740990900259	0.00793457	
1740990900260	0.055541992	
1740990900261	0.10284424	
1740990900262	0.07713318	
1740990900263	-0.021743774	
1740990900264	-0.056381226	
1740990900265	-0.055770874	
1740990900266	-0.05180359	
1740990900267	-0.044403076	
1740990900268	-0.07095337	
1740990900269	-0.04562378	
1740990900270	-0.0064849854	
1740990900271	-0.013504028	
1740990900272	-0.006942749	
1740990900273	-0.013885498	
1740990900274	-0.025634766	
1740990900275	-0.012969971	
1740990900276	9.1552734E-4	
1740990900277	0.009994507	
1740990900278	0.012359619	
1740990900279	0.018081665	
1740990900280	0.017700195	
1740990900281	0.012741089	
1740990900282	0.015411377	
1740990900283	0.014343262	
1740990900284	0.015640259	
1740990900285	0.01838684	
1740990900286	0.015411377	
1740990900287	0.015716553	
1740990900288	0.012969971	
1740990900289	0.010910034	
1740990900290	0.014724731	
1740990900291	0.013198853	
1740990900292	0.010681152	
1740990900293	0.0048828125	
1740990900294	-0.0016021729	
1740990900295	-5.340576E-4	
1740990900296	-0.0036621094	
1740990900297	-0.012283325	
1740990900298	-0.015563965	
1740990900299	-0.015563965	
1740990900300	-0.012130737	
1740990900301	-0.0019073486	
1740990900302	0.021057129	
1740990900303	0.037078857	
1740990900304	0.011291504	
1740990900305	-0.01449585	
1740990900306	-0.009536743	
1740990900307	-0.017700195	
1740990900308	-0.05256653	
1740990900309	-0.08605957	
1740990900310	-0.080566406	
1740990900311	-0.03326416	
1740990900312	0.023269653	
1740990900313	0.06896973	
1740990900314	0.048675537	
1740990900315	-3.0517578E-4	
1740990900316	0.052337646	
1740990900317	0.12420654	
1740990900318	0.16586304	
1740990900319	0.13267517	
1740990900320	-0.01838684	
1740990900321	-0.06767273	
1740990900322	-0.06919861	
1740990900323	-0.090026855	
1740990900324	-0.06454468	
1740990900325	-0.07041931	
1740990900326	-0.06011963	
1740990900327	-0.046157837	
1740990900328	-0.046920776	
1740990900329	-0.011672974	
1740990900330	0.007247925	
1740990900331	3.0517578E-4	
1740990900332	-0.02494812	
1740990900333	-0.061264038	
1740990900334	-0.07064819	
1740990900335	-0.05065918	
1740990900336	-0.028839111	
1740990900337	-0.0315094	
1740990900338	-0.016021729	
1740990900339	0.10948181	
1740990900340	0.21972656	
1740990900341	0.17456055	
1740990900342	0.19882202	
1740990900343	0.21194458	
1740990900344	0.027389526	
1740990900345	-0.0630188	
1740990900346	-0.051116943	
1740990900347	-0.08140564	
1740990900348	-0.07041931	
1740990900349	-0.066223145	
1740990900350	-0.07148743	
1740990900351	-0.055999756	
1740990900352	-0.056991577	
1740990900353	-0.04951477	
1740990900354	-0.035858154	
1740990900355	-0.02456665	
1740990900356	-0.016555786	
1740990900357	-0.017318726	
1740990900358	-0.008544922	
1740990900359	-1.5258789E-4	
1740990900360	0.00831604	
1740990900361	0.01335144	
1740990900362	0.010147095	
1740990900363	0.012893677	
1740990900364	0.014877319	
1740990900365	0.01373291	
1740990900366	0.015182495	
1740990900367	0.01991272	
1740990900368	0.016784668	
1740990900369	0.011672974	
1740990900370	0.015335083	
1740990900371	0.016708374	
1740990900372	0.015487671	
1740990900373	0.009536743	
1740990900374	0.006866455	
1740990900375	0.009460449	
1740990900376	0.0049591064	
1740990900377	-0.0016021729	
1740990900378	-0.0010681152	
1740990900379	0.0038909912	
1740990900380	0.0016021729	
1740990900381	-0.005722046	
1740990900382	-0.0064086914	
1740990900383	-0.0062561035	
1740990900384	-0.011291504	
1740990900385	-0.0090789795	
1740990900386	-0.0035095215	
1740990900387	-0.0051116943	
1740990900388	-0.0049591064	
1740990900389	-0.00289917	
1740990900390	-0.0074768066	
1740990900391	-0.009918213	
1740990900392	-0.005340576	
1740990900393	-0.0051116943	
1740990900394	-0.004425049	
1740990900395	-0.0023651123	
1740990900396	-0.0019836426	
1740990900397	-0.005340576	
1740990900398	-0.005645752	
1740990900399	-7.6293945E-5	
1740990900400	-0.0025939941	
1740990900401	6.1035156E-4	
1740990900402	0.005340576	
1740990900403	3.0517578E-4	
1740990900404	0.0023651123	
1740990900405	0.0024414062	
1740990900406	0.002746582	
1740990900407	0.012969971	
1740990900408	0.0118255615	
1740990900409	0.0047302246	
1740990900410	0.005645752	
1740990900411	0.00289917	
1740990900412	-0.002746582	
1740990900413	-0.0021362305	
1740990900414	-0.0064849854	
1740990900415	-0.01373291	
1740990900416	-0.011291504	
1740990900417	0.0019836426	
1740990900418	0.023956299	
1740990900419	0.029220581	
1740990900420	0.018234253	
1740990900421	0.0061035156	
1740990900422	-0.013961792	
1740990900423	-0.016708374	
1740990900424	-0.004501343	
1740990900425	-0.008926392	
1740990900426	-0.013122559	
1740990900427	-0.0075531006	
1740990900428	-0.0025177002	
1740990900429	9.1552734E-4	
1740990900430	0.009765625	
1740990900431	0.014343262	
1740990900432	0.001373291	
1740990900433	-0.007171631	
1740990900434	-0.0077819824	
1740990900435	-0.0074005127	
1740990900436	0.0032043457	
1740990900437	0.0012207031	
1740990900438	-0.005340576	
1740990900439	5.340576E-4	
1740990900440	7.6293945E-4	
1740990900441	-0.0019073486	
1740990900442	-0.0032806396	
1740990900443	-0.0033569336	
1740990900444	0.0011444092	
1740990900445	0.002746582	
1740990900446	-0.0031280518	
1740990900447	-0.005569458	
1740990900448	-0.0032806396	
1740990900449	-0.0029754639	
1740990900450	7.6293945E-5	
1740990900451	0.0048828125	
1740990900452	0.0045776367	
1740990900453	0.011291504	
1740990900454	0.009918213	
1740990900455	-1.5258789E-4	
1740990900456	-0.0029754639	
1740990900457	-0.0022125244	
1740990900458	0.0019073486	
1740990900459	9.1552734E-4	
1740990900460	7.6293945E-5	
1740990900461	0.0035095215	
1740990900462	-0.0010681152	
1740990900463	8.392334E-4	
1740990900464	0.005722046	
1740990900465	0.007019043	
1740990900466	0.004196167	
1740990900467	-0.0015258789	
1740990900468	0.0036621094	
1740990900469	0.0031280518	
1740990900470	-0.002746582	
1740990900471	-1.5258789E-4	
1740990900472	-0.004119873	
1740990900473	-0.0059509277	
1740990900474	-0.004425049	
1740990900475	-0.0077056885	
1740990900476	-0.0034332275	
1740990900477	0.0032806396	
1740990900478	0.006866455	
1740990900479	0.0060272217	
1740990900480	0.0015258789	
1740990900481	-5.340576E-4	
1740990900482	-0.0061798096	
1740990900483	-0.009307861	
1740990900484	-0.005722046	
1740990900485	-3.8146973E-4	
1740990900486	0.0074768066	
1740990900487	0.0075531006	
1740990900488	0.0033569336	
1740990900489	-0.028915405	
1740990900490	-0.10246277	
1740990900491	-0.15274048	
1740990900492	-0.1462555	
1740990900493	-0.10772705	
1740990900494	-0.008163452	
1740990900495	0.16647339	
1740990900496	0.28785706	
1740990900497	0.27015686	
1740990900498	0.1738739	
1740990900499	0.120010376	
1740990900500	0.12565613	
1740990900501	0.03616333	
1740990900502	-0.070495605	
1740990900503	-0.032806396	
1740990900504	-0.028762817	
1740990900505	-0.094070435	
1740990900506	-0.12901306	
1740990900507	-0.14038086	
1740990900508	-0.12962341	
1740990900509	-0.11192322	
1740990900510	-0.08918762	
1740990900511	-0.056991577	
1740990900512	-0.04119873	
1740990900513	-0.046920776	
1740990900514	-0.044555664	
1740990900515	-0.021362305	
1740990900516	-8.392334E-4	
1740990900517	0.013809204	
1740990900518	0.025405884	
1740990900519	0.03929138	
1740990900520	0.03845215	
1740990900521	0.039367676	
1740990900522	0.05027771	
1740990900523	0.047836304	
1740990900524	0.0440979	
1740990900525	0.04623413	
1740990900526	0.045547485	
1740990900527	0.046157837	
1740990900528	0.040664673	
1740990900529	0.03288269	
1740990900530	0.02357483	
1740990900531	0.01449585	
1740990900532	0.011672974	
1740990900533	0.013427734	
1740990900534	0.011062622	
1740990900535	-7.6293945E-5	
1740990900536	-0.007247925	
1740990900537	-0.01083374	
1740990900538	-0.010910034	
1740990900539	-0.015335083	
1740990900540	-0.021057129	
1740990900541	-0.016860962	
1740990900542	-0.014572144	
1740990900543	-0.017089844	
1740990900544	-0.022506714	
1740990900545	-0.020141602	
1740990900546	-0.015792847	
1740990900547	-0.018539429	
1740990900548	-0.011520386	
1740990900549	-0.007171631	
1740990900550	-0.014038086	
1740990900551	-0.009765625	
1740990900552	-0.004196167	
1740990900553	-0.0051879883	
1740990900554	0.0022125244	
1740990900555	0.0012207031	
1740990900556	-0.00289917	
1740990900557	0.004196167	
1740990900558	0.0038146973	
1740990900559	0.0064086914	
1740990900560	0.0048065186	
1740990900561	0.0021362305	
1740990900562	0.005493164	
1740990900563	0.0022125244	
1740990900564	-0.0019073486	
1740990900565	-0.0048828125	
1740990900566	-9.1552734E-4	
1740990900567	0.0077056885	
1740990900568	0.008468628	
1740990900569	0.005569458	
1740990900570	0.005264282	
1740990900571	0.0036621094	
1740990900572	0.0035095215	
1740990900573	0.005493164	
1740990900574	0.0060272217	
1740990900575	0.006942749	
1740990900576	0.004272461	
1740990900577	-0.002822876	
1740990900578	-0.006713867	
1740990900579	-0.004119873	
1740990900580	-0.0019836426	
1740990900581	-0.0049591064	
1740990900582	-0.0033569336	
1740990900583	3.8146973E-4	
1740990900584	8.392334E-4	
1740990900585	-0.0025939941	
1740990900586	-0.004043579	
1740990900587	8.392334E-4	
1740990900588	0.0011444092	
1740990900589	9.1552734E-4	
1740990900590	-6.1035156E-4	
1740990900591	0.0035858154	
1740990900592	0.0011444092	
1740990900593	-0.0024414062	
1740990900594	-7.6293945E-4	
1740990900595	-4.5776367E-4	
1740990900596	0.0036621094	
1740990900597	0.0062561035	
1740990900598	0.005645752	
1740990900599	0.001373291	
1740990900600	7.6293945E-4	
1740990900601	9.918213E-4	
1740990900602	-0.0012207031	
1740990900603	-0.0023651123	
1740990900604	-0.0017547607	
1740990900605	-0.001373291	
1740990900606	-0.0016021729	
1740990900607	0.0036621094	
1740990900608	-7.6293945E-5	
1740990900609	-3.8146973E-4	
1740990900610	0.002822876	
1740990900611	-0.0032806396	
1740990900612	8.392334E-4	
1740990900613	-0.0016784668	
1740990900614	-2.2888184E-4	
1740990900615	0.004196167	
1740990900616	-0.002746582	
1740990900617	-0.002670288	
1740990900618	-0.0048828125	
1740990900619	-0.0036621094	
1740990900620	0.0031280518	
1740990900621	0.0047302246	
1740990900622	0.009765625	
1740990900623	0.017547607	
1740990900624	0.010299683	
1740990900625	6.1035156E-4	
1740990900626	-0.001373291	
1740990900627	-0.008239746	
1740990900628	-0.008163452	
1740990900629	-0.018997192	
1740990900630	-0.04272461	
1740990900631	-0.031814575	
1740990900632	-0.009689331	
1740990900633	-0.009536743	
1740990900634	-0.011520386	
1740990900635	-0.0032043457	
1740990900636	0.018463135	
1740990900637	0.036697388	
1740990900638	0.022201538	
1740990900639	-0.00579834	
1740990900640	0.01625061	
1740990900641	0.06980896	
1740990900642	0.04875183	
1740990900643	-0.0033569336	
1740990900644	-0.0035858154	
1740990900645	-0.008468628	
1740990900646	-0.023880005	
1740990900647	-0.025405884	
1740990900648	-0.03883362	
1740990900649	-0.039596558	
1740990900650	-0.02418518	
1740990900651	-0.041275024	
1740990900652	-0.03616333	
1740990900653	0.037994385	
1740990900654	0.06034851	
1740990900655	-0.0064849854	
1740990900656	-0.0077056885	
1740990900657	0.09315491	
1740990900658	0.120010376	
1740990900659	0.029907227	
1740990900660	0.009918213	
1740990900661	0.06629944	
1740990900662	0.032196045	
1740990900663	-0.048294067	
1740990900664	-0.07644653	
1740990900665	-0.07720947	
1740990900666	-0.06919861	
1740990900667	-0.048828125	
1740990900668	-0.04005432	
1740990900669	-0.03982544	
1740990900670	-0.052337646	
1740990900671	-0.06317139	
1740990900672	-0.04508972	
1740990900673	-0.016479492	
1740990900674	0.005874634	
1740990900675	0.02456665	
1740990900676	0.063323975	
1740990900677	0.11314392	
1740990900678	0.1133728	
1740990900679	0.082092285	
1740990900680	0.06187439	
1740990900681	0.011672974	
1740990900682	-0.021896362	
1740990900683	-0.014801025	
1740990900684	-0.027008057	
1740990900685	-0.025787354	
1740990900686	-0.023040771	
1740990900687	-0.025482178	
1740990900688	-0.020751953	
1740990900689	-0.03883362	
1740990900690	-0.057907104	
1740990900691	-0.060195923	
1740990900692	-0.053863525	
1740990900693	-0.030899048	
1740990900694	0.022201538	
1740990900695	0.11001587	
1740990900696	0.15762329	
1740990900697	0.09559631	
1740990900698	0.024032593	
1740990900699	0.022201538	
1740990900700	0.004196167	
1740990900701	-0.036087036	
1740990900702	-0.04547119	
1740990900703	-0.04837036	
1740990900704	-0.042037964	
1740990900705	-0.02998352	
1740990900706	-0.030136108	
1740990900707	-0.028076172	
1740990900708	-0.02067566	
1740990900709	-0.007019043	
1740990900710	-0.008621216	
1740990900711	-0.009994507	
1740990900712	-0.004119873	
1740990900713	-0.007171631	
1740990900714	0.0046539307	
1740990900715	0.0119018555	
1740990900716	0.004272461	
1740990900717	0.0065612793	
1740990900718	0.012130737	
1740990900719	0.0118255615	
1740990900720	0.013504028	
1740990900721	0.01159668	
1740990900722	0.0119018555	
1740990900723	0.013809204	
1740990900724	0.008773804	
1740990900725	0.0017547607	
1740990900726	0.006790161	
1740990900727	0.010604858	
1740990900728	0.0033569336	
1740990900729	0.0	
1740990900730	-0.0011444092	
1740990900731	-0.002822876	
1740990900732	-0.001449585	
1740990900733	0.0010681152	
1740990900734	-0.0016784668	
1740990900735	1.5258789E-4	
1740990900736	0.0018310547	
1740990900737	-0.004501343	
1740990900738	4.5776367E-4	
1740990900739	-4.5776367E-4	
1740990900740	-0.004196167	
1740990900741	0.0034332275	
1740990900742	0.0035095215	
1740990900743	-0.0010681152	
1740990900744	-8.392334E-4	
1740990900745	-0.0012207031	
1740990900746	7.6293945E-5	
1740990900747	8.392334E-4	
1740990900748	-0.0031280518	
1740990900749	-0.009994507	
1740990900750	-0.0118255615	
1740990900751	-0.004425049	
1740990900752	-0.0019836426	
1740990900753	-0.002822876	
1740990900754	0.004425049	
1740990900755	0.008544922	
1740990900756	0.0073242188	
1740990900757	0.008392334	
1740990900758	3.0517578E-4	
1740990900759	-7.6293945E-4	
1740990900760	0.0074005127	
1740990900761	-0.0034332275	
1740990900762	-0.015792847	
1740990900763	-0.014038086	
1740990900764	-0.0035858154	
1740990900765	0.0025939941	
1740990900766	0.002746582	
1740990900767	0.0048065186	
1740990900768	0.0019073486	
1740990900769	-0.0077056885	
1740990900770	-0.010299683	
1740990900771	-0.005340576	
1740990900772	-0.0074005127	
1740990900773	-0.0090789795	
1740990900774	-0.004425049	
1740990900775	0.016555786	
1740990900776	0.0315094	
1740990900777	0.016403198	
1740990900778	0.0049591064	
1740990900779	0.005264282	
1740990900780	0.01373291	
1740990900781	0.017852783	
1740990900782	0.020828247	
1740990900783	0.01914978	
1740990900784	-0.027999878	
1740990900785	-0.07858276	
1740990900786	-0.081710815	
1740990900787	-0.06996155	
1740990900788	-0.027236938	
1740990900789	0.02571106	
1740990900790	0.055847168	
1740990900791	0.072021484	
1740990900792	0.057525635	
1740990900793	0.035324097	
1740990900794	0.024795532	
1740990900795	0.011062622	
1740990900796	0.010147095	
1740990900797	0.012283325	
1740990900798	-0.009536743	
1740990900799	-0.016174316	
1740990900800	0.001449585	
1740990900801	0.008544922	
1740990900802	0.013580322	
1740990900803	-0.004043579	
1740990900804	-0.027923584	
1740990900805	-0.027160645	
1740990900806	-0.025939941	
1740990900807	-0.02166748	
1740990900808	-0.022888184	
1740990900809	-0.02067566	
1740990900810	-0.021362305	
1740990900811	-0.023880005	
1740990900812	-0.010681152	
1740990900813	-0.013427734	
1740990900814	-0.008087158	
1740990900815	1.5258789E-4	
1740990900816	-0.020980835	
1740990900817	-0.02128601	
1740990900818	0.0033569336	
1740990900819	0.016555786	
1740990900820	0.035629272	
1740990900821	0.050125122	
1740990900822	0.042266846	
1740990900823	0.02281189	
1740990900824	0.0063323975	
1740990900825	-0.0076293945	
1740990900826	-0.01083374	
1740990900827	0.010147095	
1740990900828	0.034179688	
1740990900829	0.03555298	
1740990900830	0.024871826	
1740990900831	0.010986328	
1740990900832	2.2888184E-4	
1740990900833	0.004119873	
1740990900834	0.0022125244	
1740990900835	0.0016784668	
1740990900836	0.0051116943	
1740990900837	-0.00541687	
1740990900838	-0.012664795	
1740990900839	-0.016403198	
1740990900840	-0.022583008	
1740990900841	-0.025100708	
1740990900842	-0.026779175	
1740990900843	-0.026397705	
1740990900844	-0.021362305	
1740990900845	-0.01159668	
1740990900846	-0.0011444092	
1740990900847	0.002822876	
1740990900848	0.012588501	
1740990900849	0.026779175	
1740990900850	0.027770996	
1740990900851	0.01914978	
1740990900852	0.008850098	
1740990900853	0.0011444092	
1740990900854	-0.006866455	
1740990900855	-0.016479492	
1740990900856	-0.010681152	
1740990900857	-0.0074005127	
1740990900858	-0.012283325	
1740990900859	-0.012207031	
1740990900860	-0.012893677	
1740990900861	-0.00793457	
1740990900862	-0.008926392	
1740990900863	-0.010986328	
1740990900864	-0.005722046	
1740990900865	-0.0024414062	
1740990900866	0.008926392	
1740990900867	0.010147095	
1740990900868	0.012207031	
1740990900869	0.016784668	
1740990900870	0.009841919	
1740990900871	0.008621216	
1740990900872	0.0046539307	
1740990900873	0.010375977	
1740990900874	0.0090789795	
1740990900875	-0.0017547607	
1740990900876	0.0034332275	
1740990900877	-0.0059509277	
1740990900878	-0.0076293945	
1740990900879	-0.003967285	
1740990900880	-0.01083374	
1740990900881	1.5258789E-4	
1740990900882	7.6293945E-5	
1740990900883	-0.009536743	
1740990900884	6.866455E-4	
1740990900885	-0.00289917	
1740990900886	7.6293945E-4	
1740990900887	-0.001449585	
1740990900888	7.6293945E-4	
1740990900889	0.010910034	
1740990900890	6.1035156E-4	
1740990900891	0.0061035156	
1740990900892	0.005340576	
1740990900893	-0.0032043457	
1740990900894	0.002746582	
1740990900895	0.0035095215	
1740990900896	0.004043579	
1740990900897	0.0064086914	
1740990900898	0.0048828125	
1740990900899	0.0051116943	
1740990900900	4.5776367E-4	
1740990900901	0.0045776367	
1740990900902	0.005874634	
1740990900903	-3.0517578E-4	
1740990900904	0.0029754639	
1740990900905	-0.001373291	
1740990900906	-0.0036621094	
1740990900907	-5.340576E-4	
1740990900908	-0.0012969971	
1740990900909	-0.006713867	
1740990900910	-0.011520386	
1740990900911	-0.0029754639	
1740990900912	-0.002822876	
1740990900913	0.0018310547	
1740990900914	-0.0021362305	
1740990900915	-0.0066375732	
1740990900916	-6.1035156E-4	
1740990900917	-0.0031280518	
1740990900918	-4.5776367E-4	
1740990900919	-8.392334E-4	
1740990900920	0.001373291	
1740990900921	3.0517578E-4	
1740990900922	-0.0032806396	
1740990900923	0.0021362305	
1740990900924	-0.001373291	
1740990900925	0.0035095215	
1740990900926	0.005340576	
1740990900927	-5.340576E-4	
1740990900928	-0.0036621094	
1740990900929	0.0	
1740990900930	0.0049591064	
1740990900931	-0.0029754639	
1740990900932	0.0023651123	
1740990900933	0.00289917	
1740990900934	2.2888184E-4	
1740990900935	0.0118255615	
1740990900936	0.002822876	
1740990900937	-0.0011444092	
1740990900938	0.008392334	
1740990900939	0.0061798096	
1740990900940	0.0032806396	
1740990900941	-0.0031280518	
1740990900942	-6.1035156E-4	
1740990900943	0.0018310547	
1740990900944	-0.00579834	
1740990900945	-0.007247925	
1740990900946	-0.00579834	
1740990900947	-0.009765625	
1740990900948	-0.008544922	
1740990900949	-0.011520386	
1740990900950	-0.0064086914	
1740990900951	-0.0038146973	
1740990900952	1.5258789E-4	
1740990900953	0.0022125244	
1740990900954	0.0020599365	
1740990900955	0.004196167	
1740990900956	-1.5258789E-4	
1740990900957	0.0029754639	
1740990900958	0.010299683	
1740990900959	0.008926392	
1740990900960	0.00869751	
1740990900961	0.00289917	
1740990900962	0.0016784668	
1740990900963	0.009536743	
1740990900964	0.007095337	
1740990900965	0.0012207031	
1740990900966	0.0048828125	
1740990900967	0.0012207031	
1740990900968	-0.00831604	
1740990900969	-0.005264282	
1740990900970	-0.0010681152	
1740990900971	5.340576E-4	
1740990900972	1.5258789E-4	
1740990900973	-0.0035095215	
1740990900974	-0.0061035156	
1740990900975	-6.1035156E-4	
1740990900976	-0.0012969971	
1740990900977	0.0	
1740990900978	0.0020599365	
1740990900979	-0.0051116943	
1740990900980	-0.002746582	
1740990900981	-0.004272461	
1740990900982	-0.0031280518	
1740990900983	0.005569458	
1740990900984	1.5258789E-4	
1740990900985	0.0018310547	
1740990900986	8.392334E-4	
1740990900987	-0.005340576	
1740990900988	9.918213E-4	
1740990900989	-0.0032043457	
1740990900990	0.004501343	
1740990900991	0.007095337	
1740990900992	-0.0025939941	
1740990900993	0.0025177002	
1740990900994	0.007095337	
1740990900995	0.0048065186	
1740990900996	-0.0025939941	
1740990900997	-6.866455E-4	
1740990900998	-6.1035156E-4	
1740990900999	-2.2888184E-4	
1740990901000	-2.2888184E-4	
1740990901001	-0.0037384033	
1740990901002	-0.0016784668	
1740990901003	-0.0019836426	
1740990901004	-0.0010681152	
1740990901005	-5.340576E-4	
1740990901006	-0.0010681152	
1740990901007	-0.0011444092	
1740990901008	0.0010681152	
1740990901009	0.0048065186	
1740990901010	-6.1035156E-4	
1740990901011	-0.0034332275	
1740990901012	-0.0017547607	
1740990901013	0.0011444092	
1740990901014	0.0035858154	
1740990901015	-6.866455E-4	
1740990901016	-0.0061798096	
1740990901017	-0.004348755	
1740990901018	-0.0030517578	
1740990901019	-7.6293945E-5	
1740990901020	0.005340576	
1740990901021	0.004348755	
1740990901022	0.005874634	
1740990901023	0.00831604	
1740990901024	0.003967285	
1740990901025	-0.003967285	
1740990901026	0.001373291	
1740990901027	-2.2888184E-4	
1740990901028	-5.340576E-4	
1740990901029	0.010757446	
1740990901030	0.00869751	
1740990901031	0.0064849854	
1740990901032	-7.6293945E-5	
1740990901033	-0.0066375732	
1740990901034	-0.005874634	
1740990901035	-0.01083374	
1740990901036	-0.0032806396	
1740990901037	-0.007171631	
1740990901038	-0.010375977	
1740990901039	0.0050354004	
1740990901040	5.340576E-4	
1740990901041	7.6293945E-5	
1740990901042	0.0019073486	
1740990901043	6.1035156E-4	
1740990901044	0.005645752	
1740990901045	0.004196167	
1740990901046	-0.002746582	
1740990901047	-0.005264282	
1740990901048	-0.0024414062	
1740990901049	6.1035156E-4	
1740990901050	0.0074768066	
1740990901051	0.005264282	
1740990901052	0.0050354004	
1740990901053	0.015792847	
1740990901054	0.018844604	
1740990901055	0.015182495	
1740990901056	0.0018310547	
1740990901057	-0.005264282	
1740990901058	-0.006866455	
1740990901059	-0.011978149	
1740990901060	-0.012207031	
1740990901061	-0.010299683	
1740990901062	-0.013580322	
1740990901063	-0.021362305	
1740990901064	-0.018157959	
1740990901065	-0.004348755	
1740990901066	0.0035858154	
1740990901067	0.0011444092	
1740990901068	-1.5258789E-4	
1740990901069	0.0064849854	
1740990901070	0.0046539307	
1740990901071	-0.002670288	
1740990901072	-0.0011444092	
1740990901073	0.0016784668	
1740990901074	0.0060272217	
1740990901075	7.6293945E-4	
1740990901076	-0.006713867	
1740990901077	0.0017547607	
1740990901078	0.016860962	
1740990901079	0.023040771	
1740990901080	0.021743774	
1740990901081	0.021820068	
1740990901082	0.011672974	
1740990901083	0.008010864	
1740990901084	0.002822876	
1740990901085	-0.012512207	
1740990901086	-0.01663208	
1740990901087	-0.016860962	
1740990901088	-0.0076293945	
1740990901089	-0.0048828125	
1740990901090	-0.01373291	
1740990901091	-0.0016784668	
1740990901092	0.010986328	
1740990901093	0.0065612793	
1740990901094	-0.0035858154	
1740990901095	-0.01876831	
1740990901096	-0.018310547	
1740990901097	-0.01411438	
1740990901098	-0.014724731	
1740990901099	-0.0049591064	
1740990901100	-0.0017547607	
1740990901101	0.0016021729	
1740990901102	0.009231567	
1740990901103	0.007019043	
1740990901104	-7.6293945E-5	
1740990901105	6.1035156E-4	
1740990901106	0.0022888184	
1740990901107	0.009536743	
1740990901108	0.013198853	
1740990901109	0.013580322	
1740990901110	0.018310547	
1740990901111	0.015182495	
1740990901112	0.014801025	
1740990901113	0.014419556	
1740990901114	0.009841919	
1740990901115	0.009841919	
1740990901116	0.004501343	
1740990901117	-0.00289917	
1740990901118	-0.0119018555	
1740990901119	-0.022583008	
1740990901120	-0.022277832	
1740990901121	-0.017089844	
1740990901122	-0.018234253	
1740990901123	-0.018005371	
1740990901124	-6.1035156E-4	
1740990901125	0.0077819824	
1740990901126	0.003967285	
1740990901127	0.006713867	
1740990901128	0.004119873	
1740990901129	0.0037384033	
1740990901130	0.0061798096	
1740990901131	0.0046539307	
1740990901132	0.010528564	
1740990901133	0.015487671	
1740990901134	0.007858276	
1740990901135	0.0010681152	
1740990901136	-3.0517578E-4	
1740990901137	-0.005569458	
1740990901138	-0.012359619	
1740990901139	-0.01838684	
1740990901140	-0.024261475	
1740990901141	-0.0074768066	
1740990901142	0.0064086914	
1740990901143	-0.0076293945	
1740990901144	0.0022125244	
1740990901145	0.01663208	
1740990901146	0.009994507	
1740990901147	0.0063323975	
1740990901148	-0.0017547607	
1740990901149	-0.0016784668	
1740990901150	3.0517578E-4	
1740990901151	0.0015258789	
1740990901152	8.392334E-4	
1740990901153	-0.011138916	
1740990901154	-0.01701355	
1740990901155	-0.0146484375	
1740990901156	-0.007171631	
1740990901157	-0.004501343	
1740990901158	-7.6293945E-4	
1740990901159	0.008544922	
1740990901160	0.0077056885	
1740990901161	0.0011444092	
1740990901162	-3.0517578E-4	
1740990901163	0.012054443	
1740990901164	0.01876831	
1740990901165	0.019454956	
1740990901166	0.026473999	
1740990901167	0.01876831	
1740990901168	-0.001373291	
1740990901169	-0.015258789	
1740990901170	-0.014038086	
1740990901171	-0.011520386	
1740990901172	-0.0074768066	
1740990901173	0.0029754639	
1740990901174	0.0017547607	
1740990901175	-0.007095337	
1740990901176	-0.013046265	
1740990901177	-0.017700195	
1740990901178	-0.017700195	
1740990901179	-0.019683838	
1740990901180	-0.01777649	
1740990901181	-0.0025177002	
1740990901182	0.008392334	
1740990901183	0.018463135	
1740990901184	0.037994385	
1740990901185	0.04600525	
1740990901186	0.036239624	
1740990901187	0.03074646	
1740990901188	0.030212402	
1740990901189	0.028076172	
1740990901190	0.02128601	
1740990901191	1.5258789E-4	
1740990901192	-0.012359619	
1740990901193	-0.011291504	
1740990901194	-0.022506714	
1740990901195	-0.024108887	
1740990901196	-0.009613037	
1740990901197	-0.00831604	
1740990901198	-0.009536743	
1740990901199	-0.003967285	
1740990901200	-0.013580322	
1740990901201	-0.028533936	
1740990901202	-0.041427612	
1740990901203	-0.05378723	
1740990901204	-0.053024292	
1740990901205	-0.054779053	
1740990901206	-0.05744934	
1740990901207	-0.040740967	
1740990901208	-0.0025177002	
1740990901209	0.023040771	
1740990901210	0.01625061	
1740990901211	0.021438599	
1740990901212	0.04310608	
1740990901213	0.057525635	
1740990901214	0.057373047	
1740990901215	0.028533936	
1740990901216	-0.00289917	
1740990901217	-0.012817383	
1740990901218	-0.0075531006	
1740990901219	-0.019302368	
1740990901220	-0.003967285	
1740990901221	0.089645386	
1740990901222	0.16662598	
1740990901223	0.15213013	
1740990901224	0.052490234	
1740990901225	-0.017852783	
1740990901226	-0.023040771	
1740990901227	-0.0920105	
1740990901228	-0.17791748	
1740990901229	-0.16235352	
1740990901230	-0.08872986	
1740990901231	-0.043029785	
1740990901232	-0.020828247	
1740990901233	0.045394897	
1740990901234	0.10643005	
1740990901235	0.12748718	
1740990901236	0.12741089	
1740990901237	0.06896973	
1740990901238	0.02822876	
1740990901239	0.007171631	
1740990901240	-0.03425598	
1740990901241	-0.034332275	
1740990901242	-0.038986206	
1740990901243	-0.048980713	
1740990901244	-0.047531128	
1740990901245	-0.062026978	
1740990901246	-0.05050659	
1740990901247	-0.04928589	
1740990901248	-0.07446289	
1740990901249	-0.060424805	
1740990901250	-0.026473999	
1740990901251	-0.005569458	
1740990901252	0.013580322	
1740990901253	0.040283203	
1740990901254	0.048828125	
1740990901255	0.03387451	
1740990901256	0.03173828	
1740990901257	0.03326416	
1740990901258	0.025024414	
1740990901259	0.013961792	
1740990901260	0.0075531006	
1740990901261	0.009994507	
1740990901262	-0.00541687	
1740990901263	-0.01953125	
1740990901264	-0.0073242188	
1740990901265	0.0073242188	
1740990901266	0.027694702	
1740990901267	0.030899048	
1740990901268	0.014038086	
1740990901269	0.0061035156	
1740990901270	0.025024414	
1740990901271	0.07148743	
1740990901272	0.08529663	
1740990901273	0.053100586	
1740990901274	0.0047302246	
1740990901275	-0.03517151	
1740990901276	-0.048065186	
1740990901277	-0.06858826	
1740990901278	-0.07698059	
1740990901279	-0.053863525	
1740990901280	-0.056610107	
1740990901281	-0.042495728	
1740990901282	-0.016174316	
1740990901283	-0.0061798096	
1740990901284	0.01586914	
1740990901285	0.029830933	
1740990901286	0.032424927	
1740990901287	0.01991272	
1740990901288	0.005874634	
1740990901289	0.0066375732	
1740990901290	-0.0023651123	
1740990901291	-0.013885498	
1740990901292	-0.0048065186	
1740990901293	0.011749268	
1740990901294	0.024871826	
1740990901295	0.032730103	
1740990901296	0.018997192	
1740990901297	-0.022583008	
1740990901298	-0.04508972	
1740990901299	-0.04776001	
1740990901300	-0.0605011	
1740990901301	-0.032958984	
1740990901302	0.0019073486	
1740990901303	0.004348755	
1740990901304	0.008163452	
1740990901305	0.023956299	
1740990901306	0.05378723	
1740990901307	0.06782532	
1740990901308	0.052490234	
1740990901309	0.020904541	
1740990901310	-0.01449585	
1740990901311	-0.03501892	
1740990901312	-0.026016235	
1740990901313	-0.010604858	
1740990901314	0.00541687	
1740990901315	-2.2888184E-4	
1740990901316	-0.023956299	
1740990901317	-0.012207031	
1740990901318	0.021820068	
1740990901319	0.06187439	
1740990901320	0.08125305	
1740990901321	0.059509277	
1740990901322	0.020828247	
1740990901323	-0.0119018555	
1740990901324	-0.021820068	
1740990901325	-0.009994507	
1740990901326	-0.0049591064	
1740990901327	-0.02456665	
1740990901328	-0.03845215	
1740990901329	-0.04737854	
1740990901330	-0.057907104	
1740990901331	-0.054092407	
1740990901332	-0.05935669	
1740990901333	-0.044708252	
1740990901334	-0.020065308	
1740990901335	-0.021591187	
1740990901336	-0.015411377	
1740990901337	0.0036621094	
1740990901338	0.023651123	
1740990901339	0.050201416	
1740990901340	0.06851196	
1740990901341	0.06599426	
1740990901342	0.055236816	
1740990901343	0.056381226	
1740990901344	0.04348755	
1740990901345	0.019302368	
1740990901346	0.008468628	
1740990901347	-0.020217896	
1740990901348	-0.048446655	
1740990901349	-0.047683716	
1740990901350	-0.041503906	
1740990901351	-0.036849976	
1740990901352	-0.025405884	
1740990901353	-0.022583008	
1740990901354	-0.037841797	
1740990901355	-0.02456665	
1740990901356	0.016174316	
1740990901357	0.019683838	
1740990901358	0.0074768066	
1740990901359	0.010223389	
1740990901360	0.03517151	
1740990901361	0.045166016	
1740990901362	-0.002746582	
1740990901363	-0.04096985	
1740990901364	-0.04524231	
1740990901365	-0.022583008	
1740990901366	0.033111572	
1740990901367	0.056533813	
1740990901368	0.060043335	
1740990901369	0.08766174	
1740990901370	0.08003235	
1740990901371	0.032958984	
1740990901372	0.004272461	
1740990901373	0.0060272217	
1740990901374	0.022125244	
1740990901375	0.020980835	
1740990901376	-0.016098022	
1740990901377	-0.057373047	
1740990901378	-0.06607056	
1740990901379	-0.061569214	
1740990901380	-0.0592041	
1740990901381	-0.03768921	
1740990901382	-0.027008057	
1740990901383	-0.05218506	
1740990901384	-0.05218506	
1740990901385	-0.032730103	
1740990901386	-0.024795532	
1740990901387	-0.006866455	
1740990901388	0.0019836426	
1740990901389	0.010986328	
1740990901390	0.03173828	
1740990901391	0.03845215	
1740990901392	0.0315094	
1740990901393	0.023345947	
1740990901394	0.024032593	
1740990901395	0.023727417	
1740990901396	0.022125244	
1740990901397	0.021743774	
1740990901398	0.0012207031	
1740990901399	-0.018463135	
1740990901400	-0.017089844	
1740990901401	-0.0073242188	
1740990901402	0.020599365	
1740990901403	0.052261353	
1740990901404	0.050735474	
1740990901405	0.021820068	
1740990901406	-0.025177002	
1740990901407	-0.048065186	
1740990901408	-0.027313232	
1740990901409	-0.027999878	
1740990901410	-0.034713745	
1740990901411	-0.021057129	
1740990901412	-0.03074646	
1740990901413	-0.03364563	
1740990901414	-0.019378662	
1740990901415	0.013504028	
1740990901416	0.055847168	
1740990901417	0.066223145	
1740990901418	0.061798096	
1740990901419	0.045013428	
1740990901420	0.015106201	
1740990901421	0.0060272217	
1740990901422	0.005264282	
1740990901423	0.0022125244	
1740990901424	0.00541687	
1740990901425	0.002746582	
1740990901426	-0.0019836426	
1740990901427	-0.013961792	
1740990901428	-0.035095215	
1740990901429	-0.058135986	
1740990901430	-0.062561035	
1740990901431	-0.045013428	
1740990901432	-0.025405884	
1740990901433	-0.006866455	
1740990901434	0.018157959	
1740990901435	0.04119873	
1740990901436	0.05104065	
1740990901437	0.029373169	
1740990901438	-0.0077819824	
1740990901439	-0.0090789795	
1740990901440	-0.0020599365	
1740990901441	-0.021743774	
1740990901442	-0.025787354	
1740990901443	-0.008773804	
1740990901444	0.012664795	
1740990901445	0.025482178	
1740990901446	0.03555298	
1740990901447	0.046463013	
1740990901448	0.03265381	
1740990901449	0.016098022	
1740990901450	-0.0011444092	
1740990901451	-0.015487671	
1740990901452	-0.01777649	
1740990901453	-0.0315094	
1740990901454	-0.031814575	
1740990901455	-0.014419556	
1740990901456	-0.01586914	
1740990901457	-0.031051636	
1740990901458	-0.027389526	
1740990901459	-0.013046265	
1740990901460	-0.036697388	
1740990901461	-0.063705444	
1740990901462	-0.060195923	
1740990901463	-0.04676819	
1740990901464	-0.01625061	
1740990901465	0.033721924	
1740990901466	0.13816833	
1740990901467	0.25382996	
1740990901468	0.22445679	
1740990901469	0.067214966	
1740990901470	-0.023956299	
1740990901471	-0.04508972	
1740990901472	-0.09780884	
1740990901473	-0.12542725	
1740990901474	-0.06401062	
1740990901475	-0.0061798096	
1740990901476	-0.03555298	
1740990901477	-0.057525635	
1740990901478	-0.032424927	
1740990901479	-0.03364563	
1740990901480	-0.030822754	
1740990901481	-0.00289917	
1740990901482	0.028915405	
1740990901483	0.033340454	
1740990901484	0.008468628	
1740990901485	0.01586914	
1740990901486	0.038223267	
1740990901487	0.0365448	
1740990901488	0.04676819	
1740990901489	0.04585266	
1740990901490	-0.016784668	
1740990901491	-0.063705444	
1740990901492	-0.063934326	
1740990901493	-0.075912476	
1740990901494	-0.051651	
1740990901495	0.03883362	
1740990901496	0.14602661	
1740990901497	0.19714355	
1740990901498	0.11489868	
1740990901499	-0.0048065186	
1740990901500	-0.047912598	
1740990901501	-0.075531006	
1740990901502	-0.08331299	
1740990901503	-0.06774902	
1740990901504	-0.062942505	
1740990901505	-0.03517151	
1740990901506	-0.03479004	
1740990901507	-0.03036499	
1740990901508	-0.0104522705	
1740990901509	-0.014343262	
1740990901510	-0.008468628	
1740990901511	0.0016784668	
1740990901512	0.009231567	
1740990901513	0.01625061	
1740990901514	0.012435913	
1740990901515	0.013122559	
1740990901516	0.020904541	
1740990901517	0.032424927	
1740990901518	0.041656494	
1740990901519	0.0415802	
1740990901520	0.018310547	
1740990901521	0.014343262	
1740990901522	-0.0034332275	
1740990901523	-0.07583618	
1740990901524	-0.07217407	
1740990901525	-0.018234253	
1740990901526	0.026245117	
1740990901527	0.107421875	
1740990901528	0.0692749	
1740990901529	-0.05683899	
1740990901530	-0.061187744	
1740990901531	-0.045547485	
1740990901532	-0.06500244	
1740990901533	-0.014419556	
1740990901534	0.07026672	
1740990901535	0.103530884	
1740990901536	0.116119385	
1740990901537	0.07354736	
1740990901538	-0.0048065186	
1740990901539	-0.004043579	
1740990901540	-0.021133423	
1740990901541	-0.05935669	
1740990901542	-0.043640137	
1740990901543	-0.04096985	
1740990901544	-0.03440857	
1740990901545	-0.02281189	
1740990901546	-0.02456665	
1740990901547	-0.013656616	
1740990901548	-0.007095337	
1740990901549	-5.340576E-4	
1740990901550	0.007095337	
1740990901551	0.0090789795	
1740990901552	0.008773804	
1740990901553	0.0032043457	
1740990901554	0.00541687	
1740990901555	0.013427734	
1740990901556	0.008850098	
1740990901557	0.006866455	
1740990901558	-0.0048828125	
1740990901559	-0.020446777	
1740990901560	-0.022964478	
1740990901561	-0.031814575	
1740990901562	-7.6293945E-5	
1740990901563	0.06919861	
1740990901564	0.097579956	
1740990901565	0.07385254	
1740990901566	0.01991272	
1740990901567	-0.02418518	
1740990901568	-0.05783081	
1740990901569	-0.084991455	
1740990901570	-0.07797241	
1740990901571	-0.061569214	
1740990901572	-0.060958862	
1740990901573	-0.055770874	
1740990901574	-0.013427734	
1740990901575	0.025405884	
1740990901576	0.03463745	
1740990901577	0.055770874	
1740990901578	0.09353638	
1740990901579	0.083999634	
1740990901580	0.005493164	
1740990901581	0.032348633	
1740990901582	0.12046814	
1740990901583	0.004348755	
1740990901584	-0.13114929	
1740990901585	-0.06500244	
1740990901586	-0.008392334	
1740990901587	-0.03364563	
1740990901588	0.029525757	
1740990901589	0.108184814	
1740990901590	0.047302246	
1740990901591	-0.003967285	
1740990901592	0.043411255	
1740990901593	0.10482788	
1740990901594	0.15022278	
1740990901595	0.09185791	
1740990901596	-0.03967285	
1740990901597	-0.12687683	
1740990901598	-0.16929626	
1740990901599	-0.18722534	
1740990901600	-0.17356873	
1740990901601	-0.13496399	
1740990901602	-0.092163086	
1740990901603	-0.03074646	
1740990901604	0.02609253	
1740990901605	0.0033569336	
1740990901606	0.0046539307	
1740990901607	0.07507324	
1740990901608	0.092544556	
1740990901609	0.06904602	
1740990901610	0.048294067	
1740990901611	0.04043579	
1740990901612	0.016021729	
1740990901613	-0.019302368	
1740990901614	0.0025939941	
1740990901615	0.028152466	
1740990901616	0.016555786	
1740990901617	0.0064849854	
1740990901618	0.00831604	
1740990901619	-5.340576E-4	
1740990901620	-0.020904541	
1740990901621	-0.039367676	
1740990901622	-0.033493042	
1740990901623	0.0020599365	
1740990901624	0.028152466	
1740990901625	0.083999634	
1740990901626	0.12962341	
1740990901627	0.057754517	
1740990901628	-0.009231567	
1740990901629	0.04928589	
1740990901630	0.09414673	
1740990901631	0.048599243	
1740990901632	-0.011291504	
1740990901633	-0.07148743	
1740990901634	-0.10551453	
1740990901635	-0.09475708	
1740990901636	-0.108795166	
1740990901637	-0.13793945	
1740990901638	-0.10292053	
1740990901639	-0.03463745	
1740990901640	-0.0365448	
1740990901641	-0.059051514	
1740990901642	0.08552551	
1740990901643	0.26786804	
1740990901644	0.26138306	
1740990901645	0.1638794	
1740990901646	0.011062622	
1740990901647	-0.20515442	
1740990901648	-0.24772644	
1740990901649	-0.11734009	
1740990901650	0.012664795	
1740990901651	0.13168335	
1740990901652	0.10131836	
1740990901653	-0.004119873	
1740990901654	0.0090789795	
1740990901655	0.012359619	
1740990901656	0.024719238	
1740990901657	0.123062134	
1740990901658	0.17478943	
1740990901659	0.13397217	
1740990901660	-0.015640259	
1740990901661	-0.11909485	
1740990901662	-0.11993408	
1740990901663	-0.2028656	
1740990901664	-0.26054382	
1740990901665	-0.24597168	
1740990901666	-0.19805908	
1740990901667	-0.09750366	
1740990901668	-0.008239746	
1740990901669	0.105667114	
1740990901670	0.14907837	
1740990901671	0.030288696	
1740990901672	-0.025405884	
1740990901673	0.043945312	
1740990901674	0.061569214	
1740990901675	0.026321411	
1740990901676	0.044021606	
1740990901677	0.09559631	
1740990901678	0.08682251	
1740990901679	0.08087158	
1740990901680	0.11993408	
1740990901681	0.106658936	
1740990901682	0.053100586	
1740990901683	0.023040771	
1740990901684	0.029296875	
1740990901685	-0.0059509277	
1740990901686	-0.0074005127	
1740990901687	0.08743286	
1740990901688	0.041656494	
1740990901689	-0.047836304	
1740990901690	-0.023269653	
1740990901691	-0.07865906	
1740990901692	-0.18440247	
1740990901693	-0.14549255	
1740990901694	0.007858276	
1740990901695	0.10437012	
1740990901696	0.15022278	
1740990901697	0.13290405	
1740990901698	0.13526917	
1740990901699	0.08972168	
1740990901700	-0.25039673	
1740990901701	-0.4194641	
1740990901702	-0.2998352	
1740990901703	-0.16098022	
1740990901704	0.102386475	
1740990901705	0.26763916	
1740990901706	0.22399902	
1740990901707	0.13153076	
1740990901708	-0.020828247	
1740990901709	-0.19607544	
1740990901710	-0.26557922	
1740990901711	-0.1915741	
1740990901712	-0.058288574	
1740990901713	0.064468384	
1740990901714	0.14961243	
1740990901715	0.13793945	
1740990901716	0.05996704	
1740990901717	0.016174316	
1740990901718	0.08895874	
1740990901719	0.22369385	
1740990901720	0.15396118	
1740990901721	0.057296753	
1740990901722	0.154953	
1740990901723	0.10925293	
1740990901724	-0.11528015	
1740990901725	-0.11001587	
1740990901726	0.11161804	
1740990901727	0.08743286	
1740990901728	-0.097579956	
1740990901729	-0.23826599	
1740990901730	-0.38200378	
1740990901731	-0.3301239	
1740990901732	-0.23895264	
1740990901733	-0.20446777	
1740990901734	-0.10536194	
1740990901735	0.0048065186	
1740990901736	0.07408142	
1740990901737	0.007019043	
1740990901738	0.07904053	
1740990901739	0.2318573	
1740990901740	0.21217346	
1740990901741	0.26374817	
1740990901742	0.28961182	
1740990901743	0.2646637	
1740990901744	0.27046204	
1740990901745	0.13343811	
1740990901746	-0.077819824	
1740990901747	-0.1878357	
1740990901748	-0.18943787	
1740990901749	-0.22865295	
1740990901750	-0.23742676	
1740990901751	-0.13618469	
1740990901752	-0.034484863	
1740990901753	0.12062073	
1740990901754	0.28137207	
1740990901755	0.28312683	
1740990901756	0.1599884	
1740990901757	0.0059509277	
1740990901758	-0.13275146	
1740990901759	-0.1399231	
1740990901760	-0.051879883	
1740990901761	-0.027389526	
1740990901762	-0.0844574	
1740990901763	-0.14404297	
1740990901764	-0.15304565	
1740990901765	-0.1587677	
1740990901766	-0.08338928	
1740990901767	0.052261353	
1740990901768	0.06904602	
1740990901769	0.005264282	
1740990901770	-0.042800903	
1740990901771	-0.077056885	
1740990901772	-0.08621216	
1740990901773	0.0047302246	
1740990901774	0.035705566	
1740990901775	-0.025405884	
1740990901776	0.018081665	
1740990901777	0.025634766	
1740990901778	0.093688965	
1740990901779	0.21217346	
1740990901780	0.1399231	
1740990901781	0.14411926	
1740990901782	0.18074036	
1740990901783	0.12542725	
1740990901784	0.10864258	
1740990901785	-0.026321411	
1740990901786	-0.29083252	
1740990901787	-0.41496277	
1740990901788	-0.20820618	
1740990901789	0.095443726	
1740990901790	0.018081665	
1740990901791	0.07980347	
1740990901792	0.4071045	
1740990901793	0.1259613	
1740990901794	-0.13954163	
1740990901795	-0.039901733	
1740990901796	-0.074539185	
1740990901797	0.031433105	
1740990901798	-0.004425049	
1740990901799	-0.14480591	
1740990901800	-0.06149292	
1740990901801	-0.056610107	
1740990901802	-0.10360718	
1740990901803	-0.13305664	
1740990901804	-0.08804321	
1740990901805	-0.047836304	
1740990901806	-0.07850647	
1740990901807	-0.08125305	
1740990901808	-0.15151978	
1740990901809	-0.041427612	
1740990901810	0.21453857	
1740990901811	0.21003723	
1740990901812	0.10620117	
1740990901813	0.10177612	
1740990901814	0.22628784	
1740990901815	0.5000305	
1740990901816	0.63049316	
1740990901817	0.44281006	
1740990901818	0.13999939	
1740990901819	-0.2747345	
1740990901820	-0.48927307	
1740990901821	-0.44677734	
1740990901822	-0.47729492	
1740990901823	-0.31036377	
1740990901824	-0.09338379	
1740990901825	-0.015411377	
1740990901826	0.14335632	
1740990901827	0.23757935	
1740990901828	0.12420654	
1740990901829	-0.20591736	
1740990901830	-0.3565216	
1740990901831	-0.2558899	
1740990901832	-0.14144897	
1740990901833	-0.092315674	
1740990901834	-0.034561157	
1740990901835	0.234375	
1740990901836	0.23788452	
1740990901837	-0.12321472	
1740990901838	-0.36117554	
1740990901839	-0.13519287	
1740990901840	0.20439148	
1740990901841	0.16197205	
1740990901842	0.36476135	
1740990901843	0.6198883	
1740990901844	0.31539917	
1740990901845	0.04371643	
1740990901846	0.049057007	
1740990901847	-0.09880066	
1740990901848	-0.19874573	
1740990901849	0.044326782	
1740990901850	-0.09689331	
1740990901851	-0.2822876	
1740990901852	0.31066895	
1740990901853	0.5555725	
1740990901854	0.33432007	
1740990901855	0.13511658	
1740990901856	-0.39138794	
1740990901857	-0.55122375	
1740990901858	-0.44685364	
1740990901859	-0.2619171	
1740990901860	0.32341003	
1740990901861	0.35972595	
1740990901862	-0.005569458	
1740990901863	-0.08369446	
1740990901864	-0.23284912	
1740990901865	-0.22026062	
1740990901866	-0.17021179	
1740990901867	-0.36849976	
1740990901868	-0.35263062	
1740990901869	-0.26634216	
1740990901870	-0.16052246	
1740990901871	0.09880066	
1740990901872	0.18608093	
1740990901873	0.062561035	
1740990901874	0.13328552	
1740990901875	0.3375244	
1740990901876	0.22651672	
1740990901877	0.25794983	
1740990901878	0.44265747	
1740990901879	0.34957886	
1740990901880	0.24902344	
1740990901881	-0.005264282	
1740990901882	-0.23384094	
1740990901883	-0.22232056	
1740990901884	-0.13153076	
1740990901885	0.15434265	
1740990901886	0.11001587	
1740990901887	-0.16021729	
1740990901888	-0.13526917	
1740990901889	-0.2735138	
1740990901890	-0.17829895	
1740990901891	0.10772705	
1740990901892	-0.1210022	
1740990901893	-0.282135	
1740990901894	-0.1159668	
1740990901895	0.096588135	
1740990901896	0.13435364	
1740990901897	0.10345459	
1740990901898	0.18013	
1740990901899	0.048217773	
1740990901900	-0.010070801	
1740990901901	0.21224976	
1740990901902	0.3690338	
1740990901903	0.29205322	
1740990901904	-0.029220581	
1740990901905	-0.16685486	
1740990901906	-0.20942688	
1740990901907	-0.19981384	
1740990901908	-0.05493164	
1740990901909	-0.14396667	
1740990901910	-0.21713257	
1740990901911	-0.1712799	
1740990901912	-0.11909485	
1740990901913	0.007095337	
1740990901914	0.06866455	
1740990901915	-0.020751953	
1740990901916	-0.04135132	
1740990901917	-0.04043579	
1740990901918	-0.18455505	
1740990901919	-0.019836426	
1740990901920	0.35697937	
1740990901921	0.47149658	
1740990901922	0.18188477	
1740990901923	-0.30288696	
1740990901924	-0.41275024	
1740990901925	-0.20820618	
1740990901926	0.09605408	
1740990901927	0.29777527	
1740990901928	0.24337769	
1740990901929	0.15205383	
1740990901930	0.101242065	
1740990901931	0.2319336	
1740990901932	0.24291992	
1740990901933	0.12863159	
1740990901934	-0.14083862	
1740990901935	-0.63041687	
1740990901936	-0.47569275	
1740990901937	0.0065612793	
1740990901938	0.2948761	
1740990901939	0.37849426	
1740990901940	0.08377075	
1740990901941	-0.034942627	
1740990901942	-0.12123108	
1740990901943	-0.31051636	
1740990901944	-0.080566406	
1740990901945	0.029830933	
1740990901946	-0.18310547	
1740990901947	-0.012741089	
1740990901948	0.07461548	
1740990901949	-0.19012451	
1740990901950	-0.0806427	
1740990901951	0.16578674	
1740990901952	0.32661438	
1740990901953	0.21903992	
1740990901954	-0.041732788	
1740990901955	-0.027770996	
1740990901956	-0.16242981	
1740990901957	-0.30776978	
1740990901958	-0.24871826	
1740990901959	-0.052490234	
1740990901960	0.13084412	
1740990901961	-0.0579834	
1740990901962	-0.05027771	
1740990901963	0.21621704	
1740990901964	0.15426636	
1740990901965	0.18295288	
1740990901966	0.46592712	
1740990901967	0.3882599	
1740990901968	0.086364746	
1740990901969	-0.0074005127	
1740990901970	-0.043792725	
1740990901971	-0.12588501	
1740990901972	-0.21446228	
1740990901973	-0.26000977	
1740990901974	-0.17112732	
1740990901975	-0.054473877	
1740990901976	0.054092407	
1740990901977	-0.030670166	
1740990901978	-0.21011353	
1740990901979	-0.12641907	
1740990901980	-0.083999634	
1740990901981	-0.15167236	
1740990901982	-0.1511383	
1740990901983	-0.17990112	
1740990901984	-0.09780884	
1740990901985	0.15174866	
1740990901986	0.37948608	
1740990901987	0.32936096	
1740990901988	0.181427	
1740990901989	0.14457703	
1740990901990	0.025558472	
1740990901991	0.020217896	
1740990901992	0.009841919	
1740990901993	-0.077056885	
1740990901994	-0.03768921	
1740990901995	-0.042800903	
1740990901996	-0.03730774	
1740990901997	-0.018539429	
1740990901998	-0.03189087	
1740990901999	-0.020446777	
1740990902000	-0.06072998	
1740990902001	-0.08857727	
1740990902002	-0.043563843	
1740990902003	0.04585266	
1740990902004	0.15075684	
1740990902005	0.14541626	
1740990902006	-0.039138794	
1740990902007	-0.11123657	
1740990902008	-0.044631958	
1740990902009	-0.047912598	
1740990902010	-0.038604736	
1740990902011	-0.027313232	
1740990902012	0.001373291	
1740990902013	0.02067566	
1740990902014	0.010604858	
1740990902015	0.019836426	
1740990902016	0.015640259	
1740990902017	0.01953125	
1740990902018	0.020980835	
1740990902019	0.0132751465	
1740990902020	0.01083374	
1740990902021	0.0090789795	
1740990902022	0.005874634	
1740990902023	0.005874634	
1740990902024	0.0025939941	
1740990902025	7.6293945E-4	
1740990902026	-0.0023651123	
1740990902027	-0.0059509277	
1740990902028	-0.0064086914	
1740990902029	-0.012283325	
1740990902030	-0.015563965	
1740990902031	-0.008773804	
1740990902032	-0.0051116943	
1740990902033	-0.0077819824	
1740990902034	-0.009384155	
1740990902035	-0.0073242188	
1740990902036	-0.0059509277	
1740990902037	-0.009231567	
1740990902038	-0.0051116943	
1740990902039	-0.0030517578	
1740990902040	-0.0046539307	
1740990902041	0.0019073486	
1740990902042	-9.1552734E-4	
1740990902043	-0.005645752	
1740990902044	-0.0015258789	
1740990902045	0.0030517578	
1740990902046	0.0051116943	
1740990902047	-3.8146973E-4	
1740990902048	0.0032043457	
1740990902049	0.0076293945	
1740990902050	0.0017547607	
1740990902051	8.392334E-4	
1740990902052	0.004425049	
1740990902053	0.0046539307	
1740990902054	0.003967285	
1740990902055	0.0025177002	
1740990902056	0.005645752	
1740990902057	0.003967285	
1740990902058	0.009384155	
1740990902059	0.0132751465	
1740990902060	0.0029754639	
1740990902061	-0.007095337	
1740990902062	-0.0032043457	
1740990902063	0.0036621094	
1740990902064	0.0024414062	
1740990902065	9.918213E-4	
1740990902066	-0.0025177002	
1740990902067	7.6293945E-4	
1740990902068	-0.0016784668	
1740990902069	-0.0132751465	
1740990902070	-0.007095337	
1740990902071	-0.004425049	
1740990902072	-0.00579834	
1740990902073	-7.6293945E-4	
1740990902074	-0.0073242188	
1740990902075	-0.008239746	
1740990902076	-0.0050354004	
1740990902077	0.0021362305	
1740990902078	0.026245117	
1740990902079	0.028381348	
1740990902080	0.012969971	
1740990902081	0.0060272217	
1740990902082	-0.023269653	
1740990902083	-0.041503906	
1740990902084	-0.021591187	
1740990902085	-0.012359619	
1740990902086	-0.010757446	
1740990902087	-0.010375977	
1740990902088	-0.00869751	
1740990902089	0.0059509277	
1740990902090	0.015563965	
1740990902091	0.016326904	
1740990902092	0.021896362	
1740990902093	0.031204224	
1740990902094	0.029449463	
1740990902095	0.013656616	
1740990902096	2.2888184E-4	
1740990902097	-0.013046265	
1740990902098	-0.015335083	
1740990902099	-0.004119873	
1740990902100	0.005569458	
1740990902101	0.004501343	
1740990902102	0.0061798096	
1740990902103	0.00869751	
1740990902104	0.0012207031	
1740990902105	-0.0034332275	
1740990902106	-0.0021362305	
1740990902107	-0.0065612793	
1740990902108	-0.022888184	
1740990902109	-0.028915405	
1740990902110	-0.034103394	
1740990902111	-0.033493042	
1740990902112	-0.021820068	
1740990902113	-0.017623901	
1740990902114	-0.011672974	
1740990902115	-0.0074005127	
1740990902116	-0.0030517578	
1740990902117	0.0074005127	
1740990902118	0.010910034	
1740990902119	0.009002686	
1740990902120	-0.0016021729	
1740990902121	0.004196167	
1740990902122	0.007171631	
1740990902123	0.01663208	
1740990902124	0.036468506	
1740990902125	0.052490234	
1740990902126	0.05722046	
1740990902127	0.027923584	
1740990902128	-0.0032043457	
1740990902129	-0.015716553	
1740990902130	-0.02998352	
1740990902131	-0.019073486	
1740990902132	-0.01121521	
1740990902133	-0.0010681152	
1740990902134	0.009613037	
1740990902135	0.00289917	
1740990902136	0.007858276	
1740990902137	0.011367798	
1740990902138	0.0048065186	
1740990902139	0.0074768066	
1740990902140	-7.6293945E-5	
1740990902141	-0.012817383	
1740990902142	-0.01373291	
1740990902143	-0.01953125	
1740990902144	-0.03288269	
1740990902145	-0.02357483	
1740990902146	-0.010375977	
1740990902147	0.007171631	
1740990902148	0.004501343	
1740990902149	-0.015335083	
1740990902150	-0.0119018555	
1740990902151	-0.0060272217	
1740990902152	9.1552734E-4	
1740990902153	0.0012969971	
1740990902154	-0.0061035156	
1740990902155	-0.009613037	
1740990902156	-0.0012207031	
1740990902157	0.005493164	
1740990902158	-0.00579834	
1740990902159	-0.02166748	
1740990902160	-0.023422241	
1740990902161	0.0016021729	
1740990902162	0.00793457	
1740990902163	0.02204895	
1740990902164	0.03364563	
1740990902165	0.021972656	
1740990902166	0.039749146	
1740990902167	0.045928955	
1740990902168	0.05104065	
1740990902169	0.026168823	
1740990902170	0.01777649	
1740990902171	0.021362305	
1740990902172	0.016479492	
1740990902173	0.008773804	
1740990902174	-0.020446777	
1740990902175	-0.027160645	
1740990902176	-0.04096985	
1740990902177	-0.041732788	
1740990902178	-0.033493042	
1740990902179	-0.03501892	
1740990902180	-0.023040771	
1740990902181	-0.026473999	
1740990902182	-0.015716553	
1740990902183	-0.01121521	
1740990902184	-0.011520386	
1740990902185	-0.008392334	
1740990902186	-0.012283325	
1740990902187	-0.01159668	
1740990902188	-0.011749268	
1740990902189	-0.005874634	
1740990902190	0.00869751	
1740990902191	0.014572144	
1740990902192	0.02456665	
1740990902193	0.041046143	
1740990902194	0.048980713	
1740990902195	0.054397583	
1740990902196	0.041122437	
1740990902197	0.016937256	
1740990902198	-4.5776367E-4	
1740990902199	-0.021514893	
1740990902200	-0.030593872	
1740990902201	-0.025405884	
1740990902202	-0.014801025	
1740990902203	-0.011978149	
1740990902204	-0.021820068	
1740990902205	-0.033111572	
1740990902206	-0.025100708	
1740990902207	-0.015487671	
1740990902208	-0.009384155	
1740990902209	-0.0061035156	
1740990902210	-0.013809204	
1740990902211	-0.015335083	
1740990902212	-0.008850098	
1740990902213	-0.010223389	
1740990902214	0.004425049	
1740990902215	0.018997192	
1740990902216	0.017089844	
1740990902217	0.02670288	
1740990902218	0.0315094	
1740990902219	0.021514893	
1740990902220	0.009536743	
1740990902221	0.0016021729	
1740990902222	-3.0517578E-4	
1740990902223	0.010528564	
1740990902224	0.018234253	
1740990902225	0.015487671	
1740990902226	0.018539429	
1740990902227	0.015335083	
1740990902228	-0.0020599365	
1740990902229	-0.0076293945	
1740990902230	0.018310547	
1740990902231	0.030441284	
1740990902232	0.027618408	
1740990902233	0.014953613	
1740990902234	-0.030441284	
1740990902235	-0.055160522	
1740990902236	-0.06111145	
1740990902237	-0.06225586	
1740990902238	-0.053024292	
1740990902239	-0.045700073	
1740990902240	-0.033416748	
1740990902241	-0.015258789	
1740990902242	0.022735596	
1740990902243	0.053253174	
1740990902244	0.044631958	
1740990902245	0.033111572	
1740990902246	0.034484863	
1740990902247	0.027694702	
1740990902248	0.021362305	
1740990902249	0.020751953	
1740990902250	0.009231567	
1740990902251	-0.007858276	
1740990902252	-0.020599365	
1740990902253	-0.025939941	
1740990902254	-0.01586914	
1740990902255	0.0049591064	
1740990902256	0.011367798	
1740990902257	0.01411438	
1740990902258	0.015106201	
1740990902259	0.016098022	
1740990902260	0.019760132	
1740990902261	0.012588501	
1740990902262	0.0062561035	
1740990902263	4.5776367E-4	
1740990902264	-0.008773804	
1740990902265	-0.008087158	
1740990902266	-0.015029907	
1740990902267	-0.020904541	
1740990902268	-0.00831604	
1740990902269	-0.012969971	
1740990902270	-0.026473999	
1740990902271	-0.040283203	
1740990902272	-0.06668091	
1740990902273	-0.09262085	
1740990902274	-0.0856781	
1740990902275	-0.052719116	
1740990902276	-0.020446777	
1740990902277	0.0554657	
1740990902278	0.16517639	
1740990902279	0.1662445	
1740990902280	0.06690979	
1740990902281	0.032043457	
1740990902282	0.039749146	
1740990902283	0.002746582	
1740990902284	-0.011444092	
1740990902285	-0.0036621094	
1740990902286	-0.010147095	
1740990902287	-0.020065308	
1740990902288	-0.03768921	
1740990902289	-0.043792725	
1740990902290	-0.04699707	
1740990902291	-0.043640137	
1740990902292	-0.022506714	
1740990902293	-0.014953613	
1740990902294	-0.009002686	
1740990902295	0.016021729	
1740990902296	0.018157959	
1740990902297	-0.0015258789	
1740990902298	0.008087158	
1740990902299	0.004043579	
1740990902300	-0.027313232	
1740990902301	-0.023651123	
1740990902302	-0.010986328	
1740990902303	-0.023345947	
1740990902304	-0.029907227	
1740990902305	-0.010986328	
1740990902306	0.008010864	
1740990902307	0.023117065	
1740990902308	0.03982544	
1740990902309	0.03211975	
1740990902310	0.022735596	
1740990902311	0.031585693	
1740990902312	0.037765503	
1740990902313	0.024337769	
1740990902314	0.009002686	
1740990902315	0.00541687	
1740990902316	0.0011444092	
1740990902317	-0.013809204	
1740990902318	-0.026245117	
1740990902319	-0.009994507	
1740990902320	-0.007095337	
1740990902321	-0.016326904	
1740990902322	-0.01777649	
1740990902323	-0.02670288	
1740990902324	0.0025177002	
1740990902325	0.026321411	
1740990902326	0.018844604	
1740990902327	0.020370483	
1740990902328	0.014266968	
1740990902329	0.009841919	
1740990902330	0.007019043	
1740990902331	0.011138916	
1740990902332	0.014419556	
1740990902333	0.009155273	
1740990902334	0.012969971	
1740990902335	0.0019836426	
1740990902336	-0.0119018555	
1740990902337	-0.020828247	
1740990902338	-0.024795532	
1740990902339	-0.0061035156	
1740990902340	0.004119873	
1740990902341	-0.0022125244	
1740990902342	-0.010528564	
1740990902343	-0.008621216	
1740990902344	-0.015335083	
1740990902345	-0.04524231	
1740990902346	-0.056152344	
1740990902347	-0.049438477	
1740990902348	-0.037612915	
1740990902349	-0.025558472	
1740990902350	-0.004272461	
1740990902351	0.036087036	
1740990902352	0.048828125	
1740990902353	0.028381348	
1740990902354	0.027542114	
1740990902355	0.03265381	
1740990902356	0.030441284	
1740990902357	0.033721924	
1740990902358	0.022583008	
1740990902359	0.030517578	
1740990902360	0.02998352	
1740990902361	-0.009918213	
1740990902362	-0.01777649	
1740990902363	-0.010528564	
1740990902364	-0.017547607	
1740990902365	-0.018463135	
1740990902366	-0.013885498	
1740990902367	-0.018539429	
1740990902368	-0.022964478	
1740990902369	-0.008468628	
1740990902370	-6.1035156E-4	
1740990902371	-0.0012969971	
1740990902372	0.004196167	
1740990902373	0.010375977	
1740990902374	0.015335083	
1740990902375	0.0049591064	
1740990902376	-0.013656616	
1740990902377	-0.015792847	
1740990902378	-0.010604858	
1740990902379	-0.017242432	
1740990902380	-0.012588501	
1740990902381	0.004043579	
1740990902382	-0.00289917	
1740990902383	-9.1552734E-4	
1740990902384	0.008773804	
1740990902385	0.009231567	
1740990902386	0.023651123	
1740990902387	0.031280518	
1740990902388	0.041046143	
1740990902389	0.037765503	
1740990902390	0.009231567	
1740990902391	-0.0045776367	
1740990902392	-0.015258789	
1740990902393	-0.014038086	
1740990902394	-0.008163452	
1740990902395	-0.018997192	
1740990902396	-0.021972656	
1740990902397	-0.016937256	
1740990902398	-0.009231567	
1740990902399	-0.007171631	
1740990902400	-0.006942749	
1740990902401	-4.5776367E-4	
1740990902402	-0.0037384033	
1740990902403	-0.0062561035	
1740990902404	-0.0018310547	
1740990902405	-0.005874634	
1740990902406	-0.009765625	
1740990902407	-0.011291504	
1740990902408	-0.013198853	
1740990902409	-0.009994507	
1740990902410	-0.0064086914	
1740990902411	0.0012969971	
1740990902412	0.001449585	
1740990902413	0.0048828125	
1740990902414	0.026473999	
1740990902415	0.044021606	
1740990902416	0.037612915	
1740990902417	0.016860962	
1740990902418	0.0059509277	
1740990902419	0.0019073486	
1740990902420	-0.0017547607	
1740990902421	-0.006866455	
1740990902422	-0.018844604	
1740990902423	-0.027770996	
1740990902424	-0.023651123	
1740990902425	-0.0073242188	
1740990902426	0.01914978	
1740990902427	0.028152466	
1740990902428	0.0064086914	
1740990902429	-0.0035858154	
1740990902430	0.009536743	
1740990902431	0.004043579	
1740990902432	-0.025939941	
1740990902433	-0.047454834	
1740990902434	-0.0440979	
1740990902435	-0.026779175	
1740990902436	-0.008544922	
1740990902437	0.01335144	
1740990902438	0.033416748	
1740990902439	0.036621094	
1740990902440	0.024795532	
1740990902441	0.02456665	
1740990902442	0.032577515	
1740990902443	0.024871826	
1740990902444	0.007095337	
1740990902445	0.0049591064	
1740990902446	0.0050354004	
1740990902447	0.0035095215	
1740990902448	0.019683838	
1740990902449	0.02067566	
1740990902450	0.0022888184	
1740990902451	-0.005874634	
1740990902452	-0.0064086914	
1740990902453	-0.010910034	
1740990902454	-0.018310547	
1740990902455	-0.019607544	
1740990902456	-0.022583008	
1740990902457	-0.012359619	
1740990902458	0.00831604	
1740990902459	0.007171631	
1740990902460	-4.5776367E-4	
1740990902461	-8.392334E-4	
1740990902462	-0.0076293945	
1740990902463	-0.017471313	
1740990902464	-0.019989014	
1740990902465	-0.0065612793	
1740990902466	-0.0074768066	
1740990902467	-0.034332275	
1740990902468	-0.046691895	
1740990902469	-0.04020691	
1740990902470	-0.017623901	
1740990902471	0.009918213	
1740990902472	0.031204224	
1740990902473	0.044555664	
1740990902474	0.02166748	
1740990902475	-0.009918213	
1740990902476	-0.004501343	
1740990902477	-3.0517578E-4	
1740990902478	-0.01449585	
1740990902479	-0.01953125	
1740990902480	-0.0031280518	
1740990902481	0.008087158	
1740990902482	-0.009765625	
1740990902483	-0.023269653	
1740990902484	-0.00831604	
1740990902485	0.018463135	
1740990902486	0.04623413	
1740990902487	0.04020691	
1740990902488	0.012664795	
1740990902489	0.005340576	
1740990902490	-9.1552734E-4	
1740990902491	0.010986328	
1740990902492	0.018615723	
1740990902493	-0.009765625	
1740990902494	-0.016555786	
1740990902495	-0.013198853	
1740990902496	-0.0104522705	
1740990902497	-0.004196167	
1740990902498	-0.010070801	
1740990902499	-0.002822876	
1740990902500	0.0073242188	
1740990902501	0.013656616	
1740990902502	0.012969971	
1740990902503	0.013198853	
1740990902504	0.026931763	
1740990902505	0.018997192	
1740990902506	0.0074005127	
1740990902507	0.027160645	
1740990902508	0.033721924	
1740990902509	0.019836426	
1740990902510	0.020217896	
1740990902511	0.012969971	
1740990902512	0.004043579	
1740990902513	-0.006790161	
1740990902514	-0.016860962	
1740990902515	-0.020065308	
1740990902516	-0.01991272	
1740990902517	-0.016479492	
1740990902518	-0.01991272	
1740990902519	-0.016937256	
1740990902520	-0.018234253	
1740990902521	-0.019226074	
1740990902522	-0.0075531006	
1740990902523	-0.009689331	
1740990902524	-0.0066375732	
1740990902525	-0.0061035156	
1740990902526	-0.043563843	
1740990902527	-0.061416626	
1740990902528	-0.042266846	
1740990902529	-0.036392212	
1740990902530	-0.016860962	
1740990902531	0.007171631	
1740990902532	0.0065612793	
1740990902533	0.012588501	
1740990902534	0.020980835	
1740990902535	0.025024414	
1740990902536	0.020904541	
1740990902537	0.017318726	
1740990902538	0.02532959	
1740990902539	0.027923584	
1740990902540	0.028152466	
1740990902541	0.030441284	
1740990902542	0.027389526	
1740990902543	0.020980835	
1740990902544	0.016021729	
1740990902545	0.0024414062	
1740990902546	-0.020217896	
1740990902547	-0.020141602	
1740990902548	0.010757446	
1740990902549	0.035247803	
1740990902550	0.034942627	
1740990902551	0.004425049	
1740990902552	-0.04081726	
1740990902553	-0.059509277	
1740990902554	-0.05355835	
1740990902555	-0.033721924	
1740990902556	-0.016021729	
1740990902557	-0.012283325	
1740990902558	-0.004501343	
1740990902559	-9.1552734E-4	
1740990902560	0.0104522705	
1740990902561	0.03189087	
1740990902562	0.033493042	
1740990902563	0.04875183	
1740990902564	0.07675171	
1740990902565	0.07774353	
1740990902566	0.05569458	
1740990902567	0.030517578	
1740990902568	0.0073242188	
1740990902569	-0.023040771	
1740990902570	-0.03791809	
1740990902571	-0.051956177	
1740990902572	-0.07865906	
1740990902573	-0.0843811	
1740990902574	-0.0957489	
1740990902575	-0.11352539	
1740990902576	-0.087127686	
1740990902577	-0.041656494	
1740990902578	-0.0059509277	
1740990902579	0.025558472	
1740990902580	0.01876831	
1740990902581	0.015335083	
1740990902582	0.04272461	
1740990902583	0.050201416	
1740990902584	0.051727295	
1740990902585	0.04386902	
1740990902586	0.028915405	
1740990902587	0.028381348	
1740990902588	0.02319336	
1740990902589	0.027313232	
1740990902590	0.04020691	
1740990902591	0.05256653	
1740990902592	0.07041931	
1740990902593	0.064697266	
1740990902594	0.04310608	
1740990902595	0.02243042	
1740990902596	-0.026779175	
1740990902597	-0.075302124	
1740990902598	-0.089035034	
1740990902599	-0.08857727	
1740990902600	-0.0743103	
1740990902601	-0.055541992	
1740990902602	-0.03265381	
1740990902603	0.012054443	
1740990902604	0.04852295	
1740990902605	0.050735474	
1740990902606	0.035629272	
1740990902607	0.012207031	
1740990902608	-0.0010681152	
1740990902609	-0.0059509277	
1740990902610	-0.029830933	
1740990902611	-0.05393982	
1740990902612	-0.070495605	
1740990902613	-0.06614685	
1740990902614	-0.026016235	
1740990902615	-0.0074768066	
1740990902616	2.2888184E-4	
1740990902617	0.016937256	
1740990902618	0.02319336	
1740990902619	0.053024292	
1740990902620	0.09162903	
1740990902621	0.086135864	
1740990902622	0.07041931	
1740990902623	0.07072449	
1740990902624	0.023880005	
1740990902625	-0.016784668	
1740990902626	-0.023803711	
1740990902627	-0.0016784668	
1740990902628	-0.0048828125	
1740990902629	-0.062179565	
1740990902630	-0.044403076	
1740990902631	-0.009613037	
1740990902632	0.004272461	
1740990902633	0.010147095	
1740990902634	-0.031051636	
1740990902635	-0.017929077	
1740990902636	0.013656616	
1740990902637	0.03517151	
1740990902638	0.05470276	
1740990902639	0.018310547	
1740990902640	0.036315918	
1740990902641	0.104904175	
1740990902642	0.1561737	
1740990902643	0.14564514	
1740990902644	-0.024261475	
1740990902645	-0.18501282	
1740990902646	-0.22155762	
1740990902647	-0.31555176	
1740990902648	-0.3705597	
1740990902649	-0.116882324	
1740990902650	0.10688782	
1740990902651	-0.02204895	
1740990902652	-0.14717102	
1740990902653	-0.11161804	
1740990902654	0.05783081	
1740990902655	0.26672363	
1740990902656	0.24078369	
1740990902657	0.14030457	
1740990902658	0.2267456	
1740990902659	0.33866882	
1740990902660	0.25375366	
1740990902661	-0.054779053	
1740990902662	-0.33790588	
1740990902663	-0.28816223	
1740990902664	-0.1298523	
1740990902665	-0.095214844	
1740990902666	0.058670044	
1740990902667	0.2166748	
1740990902668	0.12992859	
1740990902669	-0.039367676	
1740990902670	-0.112075806	
1740990902671	-0.050430298	
1740990902672	-0.06843567	
1740990902673	-0.19836426	
1740990902674	-0.0655365	
1740990902675	0.1966095	
1740990902676	0.108184814	
1740990902677	-0.10017395	
1740990902678	-0.063934326	
1740990902679	0.08224487	
1740990902680	0.15289307	
1740990902681	0.18226624	
1740990902682	0.182724	
1740990902683	0.04096985	
1740990902684	-0.19172668	
1740990902685	-0.2846527	
1740990902686	-0.17402649	
1740990902687	0.03967285	
1740990902688	0.18920898	
1740990902689	0.084228516	
1740990902690	0.036315918	
1740990902691	0.20996094	
1740990902692	0.19332886	
1740990902693	0.08377075	
1740990902694	0.02494812	
1740990902695	-0.05218506	
1740990902696	-0.025787354	
1740990902697	-0.033416748	
1740990902698	-0.21209717	
1740990902699	-0.47599792	
1740990902700	-0.46348572	
1740990902701	-0.23803711	
1740990902702	-0.09963989	
1740990902703	0.07469177	
1740990902704	0.14045715	
1740990902705	0.13824463	
1740990902706	0.23300171	
1740990902707	0.26893616	
1740990902708	0.15953064	
1740990902709	-0.03715515	
1740990902710	-0.17158508	
1740990902711	-0.14953613	
1740990902712	-0.09063721	
1740990902713	-0.040283203	
1740990902714	0.075683594	
1740990902715	0.1133728	
1740990902716	0.113220215	
1740990902717	0.15335083	
1740990902718	0.15441895	
1740990902719	0.17585754	
1740990902720	0.22949219	
1740990902721	0.14785767	
1740990902722	-0.04119873	
1740990902723	-0.041046143	
1740990902724	-0.025634766	
1740990902725	-0.04310608	
1740990902726	0.056228638	
1740990902727	0.03982544	
1740990902728	-0.060958862	
1740990902729	-0.17211914	
1740990902730	-0.19248962	
1740990902731	-0.2053833	
1740990902732	-0.45181274	
1740990902733	-0.4471588	
1740990902734	-0.15579224	
1740990902735	0.08842468	
1740990902736	0.20652771	
1740990902737	0.033950806	
1740990902738	0.083465576	
1740990902739	0.18821716	
1740990902740	-0.021133423	
1740990902741	-0.019989014	
1740990902742	0.13504028	
1740990902743	0.1411438	
1740990902744	-0.017700195	
1740990902745	-0.10978699	
1740990902746	-0.038757324	
1740990902747	-0.09552002	
1740990902748	-0.020599365	
1740990902749	0.33370972	
1740990902750	0.35682678	
1740990902751	0.13420105	
1740990902752	0.1210022	
1740990902753	0.08354187	
1740990902754	0.0063323975	
1740990902755	0.0074005127	
1740990902756	-0.06492615	
1740990902757	-0.10887146	
1740990902758	-0.023117065	
1740990902759	0.08987427	
1740990902760	0.013580322	
1740990902761	-0.2381134	
1740990902762	-0.30891418	
1740990902763	-0.18836975	
1740990902764	0.045776367	
1740990902765	0.26031494	
1740990902766	0.15098572	
1740990902767	0.09208679	
1740990902768	0.18882751	
1740990902769	-0.09635925	
1740990902770	-0.3087616	
1740990902771	-0.049743652	
1740990902772	0.009460449	
1740990902773	-0.26931763	
1740990902774	-0.26496887	
1740990902775	-0.17669678	
1740990902776	-0.23536682	
1740990902777	-0.0023651123	
1740990902778	0.15792847	
1740990902779	0.18714905	
1740990902780	0.2936554	
1740990902781	0.25733948	
1740990902782	0.1348877	
1740990902783	-0.012512207	
1740990902784	-0.0075531006	
1740990902785	0.035247803	
1740990902786	-0.024414062	
1740990902787	-0.06530762	
1740990902788	-0.08872986	
1740990902789	-0.032730103	
1740990902790	0.030212402	
1740990902791	0.03265381	
1740990902792	-0.045166016	
1740990902793	-0.114364624	
1740990902794	-0.02532959	
1740990902795	0.03967285	
1740990902796	0.06210327	
1740990902797	0.12496948	
1740990902798	0.068740845	
1740990902799	-0.003967285	
1740990902800	0.04676819	
1740990902801	0.12298584	
1740990902802	0.110321045	
1740990902803	0.04600525	
1740990902804	-0.11703491	
1740990902805	-0.47653198	
1740990902806	-0.40611267	
1740990902807	0.10688782	
1740990902808	0.21873474	
1740990902809	0.12168884	
1740990902810	0.101623535	
1740990902811	0.11505127	
1740990902812	0.14030457	
1740990902813	0.038146973	
1740990902814	-0.040130615	
1740990902815	-0.081100464	
1740990902816	-0.16403198	
1740990902817	-0.2243805	
1740990902818	-0.12496948	
1740990902819	0.08857727	
1740990902820	0.20996094	
1740990902821	0.21537781	
1740990902822	0.043945312	
1740990902823	-0.08621216	
1740990902824	0.0146484375	
1740990902825	0.11001587	
1740990902826	0.13664246	
1740990902827	0.033416748	
1740990902828	-0.19416809	
1740990902829	-0.34744263	
1740990902830	-0.37849426	
1740990902831	-0.22621155	
1740990902832	0.02418518	
1740990902833	0.21995544	
1740990902834	0.3565216	
1740990902835	0.37620544	
1740990902836	0.2168274	
1740990902837	0.034713745	
1740990902838	-0.012664795	
1740990902839	-0.080947876	
1740990902840	-0.16029358	
1740990902841	-0.13916016	
1740990902842	-0.13595581	
1740990902843	-0.1613617	
1740990902844	-0.1525116	
1740990902845	-0.1386261	
1740990902846	-0.0856781	
1740990902847	-0.004425049	
1740990902848	0.06599426	
1740990902849	0.14663696	
1740990902850	0.1700592	
1740990902851	0.14350891	
1740990902852	0.108184814	
1740990902853	0.026397705	
1740990902854	-0.008773804	
1740990902855	-0.0011444092	
1740990902856	-0.022735596	
1740990902857	-0.07652283	
1740990902858	-0.10391235	
1740990902859	-0.009002686	
1740990902860	0.046920776	
1740990902861	0.06607056	
1740990902862	0.109558105	
1740990902863	0.05722046	
1740990902864	-0.020141602	
1740990902865	-0.0743103	
1740990902866	-0.034866333	
1740990902867	-0.0061798096	
1740990902868	-0.026550293	
1740990902869	0.021209717	
1740990902870	0.08544922	
1740990902871	0.24879456	
1740990902872	0.25672913	
1740990902873	0.004425049	
1740990902874	-0.17448425	
1740990902875	-0.24620056	
1740990902876	-0.16304016	
1740990902877	-0.05378723	
1740990902878	-0.017623901	
1740990902879	0.02960205	
1740990902880	0.012588501	
1740990902881	-0.051116943	
1740990902882	-0.16296387	
1740990902883	-0.21736145	
1740990902884	-0.070495605	
1740990902885	0.14801025	
1740990902886	0.1689148	
1740990902887	0.11795044	
1740990902888	0.14549255	
1740990902889	0.022964478	
1740990902890	-0.006790161	
1740990902891	0.0020599365	
1740990902892	-0.09780884	
1740990902893	-0.031967163	
1740990902894	-0.01739502	
1740990902895	-0.031433105	
1740990902896	0.014190674	
1740990902897	-0.011138916	
1740990902898	0.0012969971	
1740990902899	0.004043579	
1740990902900	-0.008468628	
1740990902901	-0.0075531006	
1740990902902	-0.012741089	
1740990902903	0.013198853	
1740990902904	0.021820068	
1740990902905	0.018157959	
1740990902906	0.015182495	
1740990902907	0.009689331	
1740990902908	0.005645752	
1740990902909	-0.0062561035	
1740990902910	-0.007095337	
1740990902911	-0.0051116943	
1740990902912	0.013427734	
1740990902913	0.02708435	
1740990902914	0.016403198	
1740990902915	0.014953613	
1740990902916	-0.0011444092	
1740990902917	-0.015563965	
1740990902918	7.6293945E-5	
1740990902919	0.026397705	
1740990902920	0.046463013	
1740990902921	0.05836487	
1740990902922	0.040664673	
1740990902923	5.340576E-4	
1740990902924	-0.012207031	
1740990902925	-0.01953125	
1740990902926	-0.033187866	
1740990902927	-0.02418518	
1740990902928	-0.0365448	
1740990902929	-0.050964355	
1740990902930	-0.020141602	
1740990902931	-0.005493164	
1740990902932	-0.017700195	
1740990902933	-0.030899048	
1740990902934	-0.050430298	
1740990902935	-0.055847168	
1740990902936	-0.031585693	
1740990902937	4.5776367E-4	
1740990902938	0.03555298	
1740990902939	0.076828	
1740990902940	0.009765625	
1740990902941	-0.15037537	
1740990902942	-0.19187927	
1740990902943	-0.12588501	
1740990902944	-0.01411438	
1740990902945	0.12908936	
1740990902946	0.25650024	
1740990902947	0.33187866	
1740990902948	0.20858765	
1740990902949	-0.004425049	
1740990902950	-0.15579224	
1740990902951	-0.12794495	
1740990902952	0.21598816	
1740990902953	0.3879547	
1740990902954	0.038604736	
1740990902955	-0.25871277	
1740990902956	-0.13298035	
1740990902957	0.041275024	
1740990902958	0.022583008	
1740990902959	-0.05508423	
1740990902960	-0.11795044	
1740990902961	-0.13755798	
1740990902962	-0.15724182	
1740990902963	-0.1952362	
1740990902964	-0.15327454	
1740990902965	-0.09094238	
1740990902966	-0.010070801	
1740990902967	0.11703491	
1740990902968	0.10482788	
1740990902969	0.03593445	
1740990902970	0.09918213	
1740990902971	0.117874146	
1740990902972	-0.079193115	
1740990902973	-0.25428772	
1740990902974	-0.20858765	
1740990902975	-0.092163086	
1740990902976	0.24414062	
1740990902977	0.37651062	
1740990902978	-0.10406494	
1740990902979	-0.25779724	
1740990902980	-0.025939941	
1740990902981	0.02494812	
1740990902982	0.11482239	
1740990902983	0.3011322	
1740990902984	0.33576965	
1740990902985	0.13580322	
1740990902986	0.08888245	
1740990902987	0.16532898	
1740990902988	0.062942505	
1740990902989	-0.11039734	
1740990902990	-0.2394104	
1740990902991	-0.15434265	
1740990902992	-0.03753662	
1740990902993	4.5776367E-4	
1740990902994	0.09780884	
1740990902995	0.052490234	
1740990902996	-0.08598328	
1740990902997	-0.095062256	
1740990902998	-0.12390137	
1740990902999	-0.13916016	
1740990903000	-0.08995056	
1740990903001	-0.1259613	
1740990903002	-0.109176636	
1740990903003	-0.004272461	
1740990903004	0.058898926	
1740990903005	0.017852783	
1740990903006	-0.03135681	
1740990903007	-0.008773804	
1740990903008	-0.03540039	
1740990903009	-0.029220581	
1740990903010	0.010757446	
1740990903011	-0.009384155	
1740990903012	-0.028381348	
1740990903013	-0.019073486	
1740990903014	0.087509155	
1740990903015	0.1600647	
1740990903016	0.08781433	
1740990903017	0.050964355	
1740990903018	0.09559631	
1740990903019	0.16571045	
1740990903020	0.16967773	
1740990903021	0.06484985	
1740990903022	0.033798218	
1740990903023	0.058898926	
1740990903024	-0.0019836426	
1740990903025	-0.08781433	
1740990903026	-0.14007568	
1740990903027	-0.11878967	
1740990903028	-0.052108765	
1740990903029	-0.15487671	
1740990903030	-0.23498535	
1740990903031	-0.032806396	
1740990903032	0.18218994	
1740990903033	0.17097473	
1740990903034	0.06484985	
1740990903035	0.05630493	
1740990903036	-0.021133423	
1740990903037	-0.051727295	
1740990903038	0.11680603	
1740990903039	0.31677246	
1740990903040	0.27870178	
1740990903041	-0.2835846	
1740990903042	-0.46211243	
1740990903043	-0.25230408	
1740990903044	-0.41763306	
1740990903045	-0.21324158	
1740990903046	0.20149231	
1740990903047	0.30708313	
1740990903048	0.20492554	
1740990903049	-0.13442993	
1740990903050	-0.26062012	
1740990903051	-0.18867493	
1740990903052	-0.2204895	
1740990903053	-0.15335083	
1740990903054	0.026473999	
1740990903055	0.10681152	
1740990903056	0.12451172	
1740990903057	0.29815674	
1740990903058	0.46302795	
1740990903059	0.43670654	
1740990903060	0.34820557	
1740990903061	0.0844574	
1740990903062	-0.1386261	
1740990903063	-0.021438599	
1740990903064	0.13290405	
1740990903065	0.1700592	
1740990903066	0.044708252	
1740990903067	-0.12130737	
1740990903068	-0.09056091	
1740990903069	-0.10246277	
1740990903070	-0.19691467	
1740990903071	-0.23300171	
1740990903072	-0.42190552	
1740990903073	-0.7157898	
1740990903074	-0.49552917	
1740990903075	0.25657654	
1740990903076	0.49102783	
1740990903077	0.31578064	
1740990903078	0.6298828	
1740990903079	0.7431793	
1740990903080	0.2154541	
1740990903081	-0.28648376	
1740990903082	-0.5581665	
1740990903083	-0.60150146	
1740990903084	-0.43128967	
1740990903085	-0.24993896	
1740990903086	-0.1272583	
1740990903087	0.096969604	
1740990903088	0.29029846	
1740990903089	0.1852417	
1740990903090	0.037002563	
1740990903091	0.07476807	
1740990903092	0.055541992	
1740990903093	-0.092315674	
1740990903094	-0.20561218	
1740990903095	-0.17318726	
1740990903096	-0.09605408	
1740990903097	-0.04524231	
1740990903098	0.13885498	
1740990903099	0.3237152	
1740990903100	0.42617798	
1740990903101	0.4222107	
1740990903102	0.20217896	
1740990903103	0.1298523	
1740990903104	0.21141052	
1740990903105	0.036621094	
1740990903106	-0.14709473	
1740990903107	-0.17356873	
1740990903108	-0.258255	
1740990903109	-0.26420593	
1740990903110	-0.20759583	
1740990903111	-0.18081665	
1740990903112	-0.005874634	
1740990903113	-0.05493164	
1740990903114	-0.33119202	
1740990903115	-0.19737244	
1740990903116	0.11810303	
1740990903117	0.37956238	
1740990903118	0.59661865	
1740990903119	0.3529358	
1740990903120	-0.036849976	
1740990903121	-0.13465881	
1740990903122	-0.09437561	
1740990903123	-0.13763428	
1740990903124	-0.25917053	
1740990903125	-0.06790161	
1740990903126	0.14801025	
1740990903127	0.068740845	
1740990903128	-0.1387024	
1740990903129	-0.31288147	
1740990903130	-0.21400452	
1740990903131	-0.1737976	
1740990903132	-0.1737976	
1740990903133	0.06607056	
1740990903134	0.21957397	
1740990903135	0.21331787	
1740990903136	0.096206665	
1740990903137	-0.08270264	
1740990903138	-0.06919861	
1740990903139	0.14419556	
1740990903140	0.34568787	
1740990903141	0.48698425	
1740990903142	0.31936646	
1740990903143	-0.11619568	
1740990903144	-0.4411316	
1740990903145	-0.5516815	
1740990903146	-0.23536682	
1740990903147	0.30265808	
1740990903148	0.37521362	
1740990903149	0.039215088	
1740990903150	-0.22262573	
1740990903151	-0.38749695	
1740990903152	-0.3993988	
1740990903153	-0.22949219	
1740990903154	0.128479	
1740990903155	0.4736328	
1740990903156	0.56747437	
1740990903157	0.5288696	
1740990903158	0.0844574	
1740990903159	-0.15571594	
1740990903160	0.14709473	
1740990903161	0.16242981	
1740990903162	-0.0032806396	
1740990903163	-0.2130127	
1740990903164	-0.42533875	
1740990903165	-0.43426514	
1740990903166	-0.41503906	
1740990903167	-0.33950806	
1740990903168	-0.23880005	
1740990903169	-0.04837036	
1740990903170	0.34454346	
1740990903171	0.5541229	
1740990903172	0.37528992	
1740990903173	0.051498413	
1740990903174	-0.14808655	
1740990903175	-0.08621216	
1740990903176	-0.103302	
1740990903177	-0.08201599	
1740990903178	-0.0051116943	
1740990903179	-0.23727417	
1740990903180	-0.15769958	
1740990903181	-0.015411377	
1740990903182	0.10749817	
1740990903183	0.54885864	
1740990903184	0.47477722	
1740990903185	0.22018433	
1740990903186	0.113220215	
1740990903187	-0.19645691	
1740990903188	-0.2622223	
1740990903189	-0.21339417	
1740990903190	-0.18806458	
1740990903191	-0.13648987	
1740990903192	-0.2735901	
1740990903193	-0.18310547	
1740990903194	0.082473755	
1740990903195	0.06958008	
1740990903196	-0.015716553	
1740990903197	-0.077438354	
1740990903198	0.083999634	
1740990903199	0.62538147	
1740990903200	0.9907532	
1740990903201	0.77819824	
1740990903202	0.06896973	
1740990903203	-0.40534973	
1740990903204	-0.4434967	
1740990903205	-0.58784485	
1740990903206	-0.50819397	
1740990903207	-0.22567749	
1740990903208	-0.14564514	
1740990903209	-0.104904175	
1740990903210	-0.083847046	
1740990903211	-0.235672	
1740990903212	-0.30021667	
1740990903213	-0.27809143	
1740990903214	-0.28549194	
1740990903215	0.03112793	
1740990903216	0.40901184	
1740990903217	0.73783875	
1740990903218	0.89920044	
1740990903219	0.49179077	
1740990903220	0.12939453	
1740990903221	-0.050430298	
1740990903222	-0.27793884	
1740990903223	-0.35964966	
1740990903224	-0.44319153	
1740990903225	-0.3353119	
1740990903226	0.090026855	
1740990903227	0.46852112	
1740990903228	0.5014801	
1740990903229	0.08407593	
1740990903230	-0.21064758	
1740990903231	-0.3176117	
1740990903232	-0.6500244	
1740990903233	-0.5667877	
1740990903234	-0.092315674	
1740990903235	0.08514404	
1740990903236	0.23735046	
1740990903237	0.33187866	
1740990903238	0.104522705	
1740990903239	0.09185791	
1740990903240	0.21644592	
1740990903241	0.13702393	
1740990903242	0.1613617	
1740990903243	0.08049011	
1740990903244	-0.103530884	
1740990903245	-0.06454468	
1740990903246	-0.07102966	
1740990903247	-0.19264221	
1740990903248	-0.1940155	
1740990903249	-0.08872986	
1740990903250	0.043258667	
1740990903251	0.2116394	
1740990903252	0.22781372	
1740990903253	0.18867493	
1740990903254	0.2217865	
1740990903255	0.11268616	
1740990903256	-0.053634644	
1740990903257	-0.10307312	
1740990903258	8.392334E-4	
1740990903259	0.049438477	
1740990903260	-0.10192871	
1740990903261	-0.18218994	
1740990903262	-0.16830444	
1740990903263	-0.15914917	
1740990903264	-0.1538086	
1740990903265	-0.19325256	
1740990903266	-0.19218445	
1740990903267	-0.105285645	
1740990903268	0.0541687	
1740990903269	0.16799927	
1740990903270	0.13114929	
1740990903271	0.13214111	
1740990903272	0.14144897	
1740990903273	0.041046143	
1740990903274	0.030670166	
1740990903275	0.048828125	
1740990903276	0.04348755	
1740990903277	0.048980713	
1740990903278	-0.044937134	
1740990903279	-0.08506775	
1740990903280	-0.06286621	
1740990903281	-0.05203247	
1740990903282	0.0090789795	
1740990903283	0.056610107	
1740990903284	0.066604614	
1740990903285	0.012130737	
1740990903286	-0.024719238	
1740990903287	-0.002746582	
1740990903288	-0.012741089	
1740990903289	-0.0077819824	
1740990903290	-0.0032043457	
1740990903291	-0.008163452	
1740990903292	-7.6293945E-5	
1740990903293	-0.009307861	
1740990903294	-0.00869751	
1740990903295	-0.009002686	
1740990903296	-0.0037384033	
1740990903297	0.012130737	
1740990903298	0.0063323975	
1740990903299	0.011062622	
1740990903300	0.009613037	
1740990903301	-0.007171631	
1740990903302	0.0038146973	
1740990903303	0.0132751465	
1740990903304	0.010223389	
1740990903305	0.010528564	
1740990903306	0.005645752	
1740990903307	-1.5258789E-4	
1740990903308	-0.0023651123	
1740990903309	0.005264282	
1740990903310	-0.004043579	
1740990903311	-0.009155273	
1740990903312	-0.0048065186	
1740990903313	-0.010070801	
1740990903314	-0.0037384033	
1740990903315	-0.0025939941	
1740990903316	-0.008392334	
1740990903317	-0.0029754639	
1740990903318	-0.00541687	
1740990903319	-0.01335144	
1740990903320	-0.00831604	
1740990903321	-0.008850098	
1740990903322	-0.0046539307	
1740990903323	0.002822876	
1740990903324	-0.012283325	
1740990903325	-0.011291504	
1740990903326	0.004501343	
1740990903327	0.0077819824	
1740990903328	0.011138916	
1740990903329	0.0077819824	
1740990903330	3.8146973E-4	
1740990903331	-0.0035858154	
1740990903332	-0.004272461	
1740990903333	0.0047302246	
1740990903334	0.0017547607	
1740990903335	-0.008621216	
1740990903336	0.0016021729	
1740990903337	0.007858276	
1740990903338	0.0049591064	
1740990903339	0.0035858154	
1740990903340	-0.0023651123	
1740990903341	0.0025177002	
1740990903342	0.0023651123	
1740990903343	-5.340576E-4	
1740990903344	0.0020599365	
1740990903345	-0.0032043457	
1740990903346	0.003967285	
1740990903347	0.0061798096	
1740990903348	0.0031280518	
1740990903349	0.004348755	
1740990903350	3.0517578E-4	
1740990903351	0.010528564	
1740990903352	0.0037384033	
1740990903353	-0.008392334	
1740990903354	0.004196167	
1740990903355	-0.0018310547	
1740990903356	-0.006790161	
1740990903357	0.0045776367	
1740990903358	0.015792847	
1740990903359	0.029907227	
1740990903360	0.035705566	
1740990903361	0.024032593	
1740990903362	-0.0015258789	
1740990903363	-0.014801025	
1740990903364	-0.018234253	
1740990903365	-0.025634766	
1740990903366	-0.027923584	
1740990903367	-0.030975342	
1740990903368	-0.031661987	
1740990903369	-0.024032593	
1740990903370	-0.012817383	
1740990903371	0.0016021729	
1740990903372	0.007171631	
1740990903373	0.009460449	
1740990903374	0.009689331	
1740990903375	0.0035095215	
1740990903376	0.0064086914	
1740990903377	0.0038146973	
1740990903378	-0.0066375732	
1740990903379	-0.0059509277	
1740990903380	0.001373291	
1740990903381	0.009231567	
1740990903382	0.0077056885	
1740990903383	-0.0038909912	
1740990903384	-0.009689331	
1740990903385	-0.005569458	
1740990903386	-0.002746582	
1740990903387	-0.009536743	
1740990903388	-0.012741089	
1740990903389	-0.016784668	
1740990903390	-0.026473999	
1740990903391	-0.02067566	
1740990903392	-0.01121521	
1740990903393	-0.004119873	
1740990903394	0.014572144	
1740990903395	0.016555786	
1740990903396	0.018310547	
1740990903397	0.042266846	
1740990903398	0.05340576	
1740990903399	0.041427612	
1740990903400	0.016021729	
1740990903401	-7.6293945E-4	
1740990903402	0.0030517578	
1740990903403	7.6293945E-4	
1740990903404	0.0016021729	
1740990903405	0.004119873	
1740990903406	0.0051116943	
1740990903407	0.007858276	
1740990903408	0.0018310547	
1740990903409	0.0017547607	
1740990903410	-0.0050354004	
1740990903411	-0.01411438	
1740990903412	-0.017700195	
1740990903413	-0.0132751465	
1740990903414	0.0012969971	
1740990903415	-0.009155273	
1740990903416	-0.015258789	
1740990903417	-0.015716553	
1740990903418	-0.024414062	
1740990903419	-0.020980835	
1740990903420	-0.0075531006	
1740990903421	0.015716553	
1740990903422	0.022506714	
1740990903423	0.0020599365	
1740990903424	-0.0119018555	
1740990903425	-0.016174316	
1740990903426	-0.021591187	
1740990903427	-0.029449463	
1740990903428	-0.029067993	
1740990903429	-0.019607544	
1740990903430	-0.011978149	
1740990903431	-7.6293945E-4	
1740990903432	0.0059509277	
1740990903433	0.033798218	
1740990903434	0.04966736	
1740990903435	0.043029785	
1740990903436	0.043640137	
1740990903437	0.02357483	
1740990903438	0.010910034	
1740990903439	0.0032043457	
1740990903440	-0.0050354004	
1740990903441	-0.01121521	
1740990903442	-0.03036499	
1740990903443	-0.022888184	
1740990903444	-0.029373169	
1740990903445	-0.031661987	
1740990903446	-0.0019073486	
1740990903447	0.009689331	
1740990903448	0.021362305	
1740990903449	0.00831604	
1740990903450	-0.014724731	
1740990903451	-0.0046539307	
1740990903452	-0.0034332275	
1740990903453	0.0012969971	
1740990903454	0.01838684	
1740990903455	0.020217896	
1740990903456	0.027008057	
1740990903457	0.03791809	
1740990903458	0.031280518	
1740990903459	0.0051116943	
1740990903460	-0.013580322	
1740990903461	-0.017089844	
1740990903462	-0.023345947	
1740990903463	-0.023422241	
1740990903464	-0.016479492	
1740990903465	-0.016403198	
1740990903466	7.6293945E-4	
1740990903467	0.025482178	
1740990903468	0.021514893	
1740990903469	0.0104522705	
1740990903470	0.0061798096	
1740990903471	6.1035156E-4	
1740990903472	-0.013198853	
1740990903473	-0.026855469	
1740990903474	-0.028762817	
1740990903475	-0.025939941	
1740990903476	-0.02204895	
1740990903477	-0.031967163	
1740990903478	-0.029220581	
1740990903479	-0.020523071	
1740990903480	-0.015487671	
1740990903481	-0.0021362305	
1740990903482	-7.6293945E-4	
1740990903483	-0.0034332275	
1740990903484	0.004272461	
1740990903485	0.021514893	
1740990903486	0.031967163	
1740990903487	0.019607544	
1740990903488	0.009307861	
1740990903489	0.011444092	
1740990903490	0.01838684	
1740990903491	0.026397705	
1740990903492	0.020065308	
1740990903493	0.011749268	
1740990903494	0.01586914	
1740990903495	0.026626587	
1740990903496	0.032730103	
1740990903497	0.029830933	
1740990903498	0.00579834	
1740990903499	-0.01449585	
1740990903500	-0.017852783	
1740990903501	-0.026397705	
1740990903502	-0.02243042	
1740990903503	-0.00793457	
1740990903504	0.005340576	
1740990903505	0.015487671	
1740990903506	0.0061798096	
1740990903507	-0.002822876	
1740990903508	-0.012969971	
1740990903509	-0.012817383	
1740990903510	-0.0061035156	
1740990903511	-0.0062561035	
1740990903512	-0.020370483	
1740990903513	-0.03074646	
1740990903514	-0.026855469	
1740990903515	-0.015945435	
1740990903516	-0.006942749	
1740990903517	-0.0037384033	
1740990903518	0.007858276	
1740990903519	0.020217896	
1740990903520	0.010910034	
1740990903521	-0.01739502	
1740990903522	-0.028533936	
1740990903523	-0.029067993	
1740990903524	-0.023651123	
1740990903525	-1.5258789E-4	
1740990903526	0.00289917	
1740990903527	-0.014572144	
1740990903528	-0.026855469	
1740990903529	-0.014724731	
1740990903530	0.017318726	
1740990903531	0.03173828	
1740990903532	0.039367676	
1740990903533	0.045547485	
1740990903534	0.050048828	
1740990903535	0.05142212	
1740990903536	0.04196167	
1740990903537	0.034179688	
1740990903538	0.03944397	
1740990903539	0.043029785	
1740990903540	0.042266846	
1740990903541	0.028381348	
1740990903542	-0.00831604	
1740990903543	-0.051651	
1740990903544	-0.060195923	
1740990903545	-0.044631958	
1740990903546	-0.049591064	
1740990903547	-0.04638672	
1740990903548	-0.023803711	
1740990903549	-0.027694702	
1740990903550	-0.026855469	
1740990903551	-0.007019043	
1740990903552	-0.0075531006	
1740990903553	-0.01159668	
1740990903554	-0.018997192	
1740990903555	-0.032348633	
1740990903556	-0.019989014	
1740990903557	-8.392334E-4	
1740990903558	0.010528564	
1740990903559	0.020980835	
1740990903560	0.017547607	
1740990903561	0.009765625	
1740990903562	0.0077056885	
1740990903563	9.1552734E-4	
1740990903564	-0.0045776367	
1740990903565	0.0036621094	
1740990903566	0.021133423	
1740990903567	0.028457642	
1740990903568	0.035629272	
1740990903569	0.04043579	
1740990903570	0.021133423	
1740990903571	0.005874634	
1740990903572	-0.0020599365	
1740990903573	-0.012054443	
1740990903574	-0.014266968	
1740990903575	-0.018463135	
1740990903576	-0.010528564	
1740990903577	-0.0032043457	
1740990903578	-0.018081665	
1740990903579	-0.00831604	
1740990903580	0.011291504	
1740990903581	0.020599365	
1740990903582	0.03555298	
1740990903583	0.027999878	
1740990903584	0.0032043457	
1740990903585	-0.023498535	
1740990903586	-0.030059814	
1740990903587	-0.027236938	
1740990903588	-0.036392212	
1740990903589	-0.025253296	
1740990903590	-0.0289917	
1740990903591	-0.038604736	
1740990903592	-0.009307861	
1740990903593	0.028839111	
1740990903594	0.042648315	
1740990903595	0.02319336	
1740990903596	0.005569458	
1740990903597	0.0012969971	
1740990903598	0.0012207031	
1740990903599	0.012054443	
1740990903600	0.023422241	
1740990903601	0.022506714	
1740990903602	-0.004119873	
1740990903603	-0.02067566	
1740990903604	-0.0066375732	
1740990903605	-0.0020599365	
1740990903606	-0.011672974	
1740990903607	-0.010528564	
1740990903608	0.005569458	
1740990903609	0.0049591064	
1740990903610	0.0029754639	
1740990903611	0.012512207	
1740990903612	0.013885498	
1740990903613	0.02357483	
1740990903614	0.029525757	
1740990903615	0.032196045	
1740990903616	0.023040771	
1740990903617	-0.00579834	
1740990903618	-0.022277832	
1740990903619	-0.028305054	
1740990903620	-0.024795532	
1740990903621	-0.022735596	
1740990903622	-0.028839111	
1740990903623	-0.02998352	
1740990903624	-0.026779175	
1740990903625	-0.033721924	
1740990903626	-0.03578186	
1740990903627	-0.015563965	
1740990903628	0.0066375732	
1740990903629	0.02670288	
1740990903630	0.03326416	
1740990903631	0.030288696	
1740990903632	0.035705566	
1740990903633	0.033950806	
1740990903634	0.021362305	
1740990903635	0.002746582	
1740990903636	-0.017700195	
1740990903637	-0.034561157	
1740990903638	-0.036010742	
1740990903639	-0.013046265	
1740990903640	0.0075531006	
1740990903641	0.008468628	
1740990903642	0.016784668	
1740990903643	0.0289917	
1740990903644	0.025405884	
1740990903645	0.01838684	
1740990903646	0.020904541	
1740990903647	0.024719238	
1740990903648	0.012817383	
1740990903649	-7.6293945E-5	
1740990903650	-0.0037384033	
1740990903651	-0.0016021729	
1740990903652	2.2888184E-4	
1740990903653	-0.014038086	
1740990903654	-0.032348633	
1740990903655	-0.04562378	
1740990903656	-0.05783081	
1740990903657	-0.058898926	
1740990903658	-0.04196167	
1740990903659	-0.013122559	
1740990903660	0.010299683	
1740990903661	0.019226074	
1740990903662	0.032424927	
1740990903663	0.054779053	
1740990903664	0.06111145	
1740990903665	0.041122437	
1740990903666	0.027694702	
1740990903667	0.008850098	
1740990903668	-0.014877319	
1740990903669	-0.013961792	
1740990903670	-0.015258789	
1740990903671	-0.015106201	
1740990903672	-0.018310547	
1740990903673	-0.02746582	
1740990903674	-0.01838684	
1740990903675	-0.0030517578	
1740990903676	0.001373291	
1740990903677	-0.004196167	
1740990903678	-0.0018310547	
1740990903679	0.006790161	
1740990903680	0.015106201	
1740990903681	0.02166748	
1740990903682	0.012359619	
1740990903683	-0.0077056885	
1740990903684	-0.0119018555	
1740990903685	-0.010910034	
1740990903686	-0.0118255615	
1740990903687	0.0022888184	
1740990903688	0.015258789	
1740990903689	0.012435913	
1740990903690	-2.2888184E-4	
1740990903691	-0.026855469	
1740990903692	-0.029144287	
1740990903693	-0.0061798096	
1740990903694	-0.008239746	
1740990903695	-0.014724731	
1740990903696	-0.0061035156	
1740990903697	0.0066375732	
1740990903698	0.023880005	
1740990903699	0.028839111	
1740990903700	0.020904541	
1740990903701	0.020446777	
1740990903702	0.015258789	
1740990903703	0.00579834	
1740990903704	0.0061798096	
1740990903705	0.0016021729	
1740990903706	-0.00793457	
1740990903707	-0.007247925	
1740990903708	0.005264282	
1740990903709	0.014038086	
1740990903710	0.020446777	
1740990903711	0.029067993	
1740990903712	0.016555786	
1740990903713	0.0032043457	
1740990903714	-0.015029907	
1740990903715	-0.032348633	
1740990903716	-0.02067566	
1740990903717	-0.01739502	
1740990903718	-0.03578186	
1740990903719	-0.053710938	
1740990903720	-0.038604736	
1740990903721	-0.02708435	
1740990903722	-0.06416321	
1740990903723	-0.066223145	
1740990903724	-0.033416748	
1740990903725	-0.0064849854	
1740990903726	0.037612915	
1740990903727	0.06500244	
1740990903728	0.05393982	
1740990903729	0.052261353	
1740990903730	0.062332153	
1740990903731	0.0642395	
1740990903732	0.06881714	
1740990903733	0.05996704	
1740990903734	0.035858154	
1740990903735	0.016326904	
1740990903736	-0.0047302246	
1740990903737	-0.017929077	
1740990903738	-0.018920898	
1740990903739	-0.008468628	
1740990903740	0.013961792	
1740990903741	0.024108887	
1740990903742	0.0064849854	
1740990903743	-0.018920898	
1740990903744	-0.03227234	
1740990903745	-0.045928955	
1740990903746	-0.059814453	
1740990903747	-0.07041931	
1740990903748	-0.06599426	
1740990903749	-0.055007935	
1740990903750	-0.037460327	
1740990903751	-0.012512207	
1740990903752	-0.01335144	
1740990903753	-0.016403198	
1740990903754	-0.00831604	
1740990903755	0.017623901	
1740990903756	0.04196167	
1740990903757	0.03768921	
1740990903758	0.035247803	
1740990903759	0.03364563	
1740990903760	0.03364563	
1740990903761	0.033416748	
1740990903762	0.037994385	
1740990903763	0.058135986	
1740990903764	0.04135132	
1740990903765	-0.0015258789	
1740990903766	-0.010528564	
1740990903767	-0.02166748	
1740990903768	-0.032043457	
1740990903769	-0.022735596	
1740990903770	-0.024108887	
1740990903771	-0.025024414	
1740990903772	-0.027618408	
1740990903773	-0.03929138	
1740990903774	-0.048217773	
1740990903775	-0.059051514	
1740990903776	-0.05279541	
1740990903777	-0.026550293	
1740990903778	-0.008926392	
1740990903779	0.0032806396	
1740990903780	0.0050354004	
1740990903781	0.004119873	
1740990903782	0.016021729	
1740990903783	0.02708435	
1740990903784	0.037231445	
1740990903785	0.044708252	
1740990903786	0.033340454	
1740990903787	0.01838684	
1740990903788	0.024337769	
1740990903789	0.03967285	
1740990903790	0.06645203	
1740990903791	0.086746216	
1740990903792	0.087890625	
1740990903793	0.07362366	
1740990903794	0.038528442	
1740990903795	0.020904541	
1740990903796	0.039215088	
1740990903797	0.019073486	
1740990903798	-0.049362183	
1740990903799	-0.100097656	
1740990903800	-0.13343811	
1740990903801	-0.124053955	
1740990903802	-0.07034302	
1740990903803	-0.039901733	
1740990903804	-0.034866333	
1740990903805	-0.018997192	
1740990903806	-0.013046265	
1740990903807	-0.016403198	
1740990903808	-0.009384155	
1740990903809	-0.003967285	
1740990903810	0.00541687	
1740990903811	0.016403198	
1740990903812	0.029525757	
1740990903813	0.039215088	
1740990903814	0.041427612	
1740990903815	0.03288269	
1740990903816	0.015792847	
1740990903817	0.011672974	
1740990903818	0.0048828125	
1740990903819	-0.015563965	
1740990903820	-0.011062622	
1740990903821	0.019989014	
1740990903822	0.045166016	
1740990903823	0.05630493	
1740990903824	0.038528442	
1740990903825	-0.009765625	
1740990903826	-0.03578186	
1740990903827	-0.032348633	
1740990903828	-0.032730103	
1740990903829	-0.03967285	
1740990903830	-0.04814148	
1740990903831	-0.029754639	
1740990903832	0.011367798	
1740990903833	0.022125244	
1740990903834	0.018463135	
1740990903835	0.022659302	
1740990903836	0.025558472	
1740990903837	0.029373169	
1740990903838	-0.0034332275	
1740990903839	-0.050201416	
1740990903840	-0.04638672	
1740990903841	-0.021362305	
1740990903842	-0.0060272217	
1740990903843	-0.011138916	
1740990903844	-0.022583008	
1740990903845	-0.0023651123	
1740990903846	0.016860962	
1740990903847	0.008544922	
1740990903848	-0.0010681152	
1740990903849	-0.0146484375	
1740990903850	-0.0064849854	
1740990903851	0.013809204	
1740990903852	0.018234253	
1740990903853	0.02166748	
1740990903854	-6.1035156E-4	
1740990903855	-0.008239746	
1740990903856	-6.1035156E-4	
1740990903857	-0.0038146973	
1740990903858	0.0064086914	
1740990903859	-0.0051116943	
1740990903860	-0.03555298	
1740990903861	-0.05569458	
1740990903862	-0.02456665	
1740990903863	0.033721924	
1740990903864	0.05722046	
1740990903865	0.059509277	
1740990903866	0.061645508	
1740990903867	0.05897522	
1740990903868	0.025024414	
1740990903869	0.011520386	
1740990903870	0.029907227	
1740990903871	0.04135132	
1740990903872	0.07385254	
1740990903873	0.09262085	
1740990903874	0.048675537	
1740990903875	-0.007171631	
1740990903876	-0.03677368	
1740990903877	-0.04486084	
1740990903878	-0.02998352	
1740990903879	-0.0566864	
1740990903880	-0.109176636	
1740990903881	-0.12825012	
1740990903882	-0.1348114	
1740990903883	-0.10795593	
1740990903884	-0.048217773	
1740990903885	-0.0024414062	
1740990903886	0.015792847	
1740990903887	0.012130737	
1740990903888	0.0	
1740990903889	-0.0049591064	
1740990903890	-0.014419556	
1740990903891	-0.0064849854	
1740990903892	0.02166748	
1740990903893	0.055236816	
1740990903894	0.07980347	
1740990903895	0.06896973	
1740990903896	0.07774353	
1740990903897	0.09567261	
1740990903898	0.06729126	
1740990903899	0.016098022	
1740990903900	-0.014877319	
1740990903901	-0.027008057	
1740990903902	-0.04875183	
1740990903903	-0.027313232	
1740990903904	0.020523071	
1740990903905	0.029296875	
1740990903906	0.031814575	
1740990903907	-0.008850098	
1740990903908	-0.07583618	
1740990903909	-0.08239746	
1740990903910	-0.047225952	
1740990903911	-0.013809204	
1740990903912	-3.8146973E-4	
1740990903913	0.018005371	
1740990903914	0.026245117	
1740990903915	0.005493164	
1740990903916	-0.008392334	
1740990903917	-0.0036621094	
1740990903918	-0.0063323975	
1740990903919	-0.020904541	
1740990903920	-0.02571106	
1740990903921	-0.020980835	
1740990903922	-0.012359619	
1740990903923	0.007247925	
1740990903924	0.03463745	
1740990903925	0.05126953	
1740990903926	0.04081726	
1740990903927	0.014419556	
1740990903928	0.0017547607	
1740990903929	0.011291504	
1740990903930	0.011138916	
1740990903931	-0.009231567	
1740990903932	-0.0065612793	
1740990903933	0.0020599365	
1740990903934	-0.009841919	
1740990903935	-0.03517151	
1740990903936	-0.0630188	
1740990903937	-0.06309509	
1740990903938	-0.04875183	
1740990903939	-0.034561157	
1740990903940	-0.009536743	
1740990903941	0.035858154	
1740990903942	0.06652832	
1740990903943	0.05859375	
1740990903944	0.05996704	
1740990903945	0.06416321	
1740990903946	0.04798889	
1740990903947	0.056152344	
1740990903948	0.07766724	
1740990903949	0.054016113	
1740990903950	0.03036499	
1740990903951	0.03967285	
1740990903952	0.0015258789	
1740990903953	-0.064086914	
1740990903954	-0.09162903	
1740990903955	-0.1084137	
1740990903956	-0.15762329	
1740990903957	-0.17562866	
1740990903958	-0.023651123	
1740990903959	0.15716553	
1740990903960	0.20469666	
1740990903961	0.20393372	
1740990903962	0.042037964	
1740990903963	-0.18455505	
1740990903964	-0.18562317	
1740990903965	-0.12886047	
1740990903966	-0.07270813	
1740990903967	0.08041382	
1740990903968	0.17883301	
1740990903969	0.18226624	
1740990903970	0.04005432	
1740990903971	-0.051116943	
1740990903972	-0.067977905	
1740990903973	-0.3150177	
1740990903974	-0.3000641	
1740990903975	-0.047531128	
1740990903976	-0.06713867	
1740990903977	-0.094451904	
1740990903978	-0.061035156	
1740990903979	0.0024414062	
1740990903980	0.1171875	
1740990903981	-1.5258789E-4	
1740990903982	-0.08079529	
1740990903983	0.13145447	
1740990903984	0.31341553	
1740990903985	0.5028534	
1740990903986	0.5381012	
1740990903987	0.27397156	
1740990903988	0.072631836	
1740990903989	-0.08644104	
1740990903990	-0.21072388	
1740990903991	-0.14930725	
1740990903992	-0.13648987	
1740990903993	-0.24742126	
1740990903994	-0.30075073	
1740990903995	-0.24139404	
1740990903996	-0.067977905	
1740990903997	0.10017395	
1740990903998	0.17852783	
1740990903999	0.124816895	
1740990904000	-0.038146973	
1740990904001	-0.1435852	
1740990904002	-0.18684387	
1740990904003	-0.122299194	
1740990904004	0.12924194	
1740990904005	0.25161743	
1740990904006	0.107421875	
1740990904007	0.0554657	
1740990904008	0.1058197	
1740990904009	-0.029907227	
1740990904010	-0.18554688	
1740990904011	-0.19119263	
1740990904012	-0.23269653	
1740990904013	-0.27114868	
1740990904014	-0.18371582	
1740990904015	0.03517151	
1740990904016	0.3655243	
1740990904017	0.35469055	
1740990904018	0.14839172	
1740990904019	0.1209259	
1740990904020	-0.043258667	
1740990904021	-0.084991455	
1740990904022	0.19294739	
1740990904023	0.24734497	
1740990904024	0.027923584	
1740990904025	-0.029830933	
1740990904026	0.06500244	
1740990904027	0.050201416	
1740990904028	-0.061340332	
1740990904029	-0.1259613	
1740990904030	-0.22293091	
1740990904031	-0.26367188	
1740990904032	-0.07575989	
1740990904033	-0.02243042	
1740990904034	-0.11260986	
1740990904035	-0.0046539307	
1740990904036	0.046691895	
1740990904037	-0.08979797	
1740990904038	-0.095214844	
1740990904039	0.009918213	
1740990904040	0.04272461	
1740990904041	0.14221191	
1740990904042	0.20866394	
1740990904043	0.09170532	
1740990904044	-0.013885498	
1740990904045	-0.08781433	
1740990904046	-0.033721924	
1740990904047	0.040359497	
1740990904048	-0.058670044	
1740990904049	-0.014572144	
1740990904050	0.058670044	
1740990904051	-0.016708374	
1740990904052	0.08857727	
1740990904053	0.23010254	
1740990904054	0.19981384	
1740990904055	0.14442444	
1740990904056	0.012207031	
1740990904057	-0.1096344	
1740990904058	-0.15907288	
1740990904059	-0.22705078	
1740990904060	-0.24932861	
1740990904061	-0.24269104	
1740990904062	-0.109176636	
1740990904063	0.06813049	
1740990904064	0.05355835	
1740990904065	-0.06744385	
1740990904066	-0.07507324	
1740990904067	0.11634827	
1740990904068	0.23040771	
1740990904069	0.24299622	
1740990904070	0.13694763	
1740990904071	-0.21598816	
1740990904072	-0.30570984	
1740990904073	-0.12588501	
1740990904074	0.06690979	
1740990904075	0.29327393	
1740990904076	0.26252747	
1740990904077	0.072784424	
1740990904078	-0.05706787	
1740990904079	0.008468628	
1740990904080	0.11672974	
1740990904081	8.392334E-4	
1740990904082	0.051193237	
1740990904083	0.09025574	
1740990904084	0.0046539307	
1740990904085	-0.03944397	
1740990904086	-0.11993408	
1740990904087	-0.041656494	
1740990904088	0.010757446	
1740990904089	0.030670166	
1740990904090	0.0104522705	
1740990904091	-0.3088379	
1740990904092	-0.443573	
1740990904093	-0.16860962	
1740990904094	-0.087127686	
1740990904095	-0.25810242	
1740990904096	-0.27702332	
1740990904097	-0.09109497	
1740990904098	0.25115967	
1740990904099	0.50109863	
1740990904100	0.53848267	
1740990904101	0.43113708	
1740990904102	0.12046814	
1740990904103	-0.03616333	
1740990904104	0.041809082	
1740990904105	0.08163452	
1740990904106	0.07904053	
1740990904107	0.03250122	
1740990904108	-0.08682251	
1740990904109	-0.19569397	
1740990904110	-0.14923096	
1740990904111	-0.14503479	
1740990904112	-0.21018982	
1740990904113	-0.1084137	
1740990904114	-0.108795166	
1740990904115	-0.18165588	
1740990904116	-0.06088257	
1740990904117	0.047225952	
1740990904118	0.038528442	
1740990904119	0.038223267	
1740990904120	0.097961426	
1740990904121	0.0743103	
1740990904122	0.040283203	
1740990904123	0.09857178	
1740990904124	-0.08125305	
1740990904125	-0.2734375	
1740990904126	-0.14015198	
1740990904127	0.13038635	
1740990904128	0.38787842	
1740990904129	0.29533386	
1740990904130	0.09849548	
1740990904131	0.07095337	
1740990904132	-0.04638672	
1740990904133	-0.11680603	
1740990904134	-0.0995636	
1740990904135	-0.015563965	
1740990904136	0.066604614	
1740990904137	0.08331299	
1740990904138	-0.13847351	
1740990904139	-0.46340942	
1740990904140	-0.22789001	
1740990904141	0.18295288	
1740990904142	0.36140442	
1740990904143	0.33935547	
1740990904144	0.09025574	
1740990904145	-0.055007935	
1740990904146	-0.069885254	
1740990904147	-0.055923462	
1740990904148	-0.09284973	
1740990904149	-0.17280579	
1740990904150	-0.06996155	
1740990904151	0.13458252	
1740990904152	0.06752014	
1740990904153	7.6293945E-4	
1740990904154	8.392334E-4	
1740990904155	-0.22354126	
1740990904156	-0.12542725	
1740990904157	-0.050964355	
1740990904158	-0.26542664	
1740990904159	-0.23750305	
1740990904160	-0.19172668	
1740990904161	-0.050125122	
1740990904162	0.15403748	
1740990904163	0.33988953	
1740990904164	0.5288696	
1740990904165	0.33302307	
1740990904166	0.22003174	
1740990904167	0.3401184	
1740990904168	0.24681091	
1740990904169	0.14343262	
1740990904170	-0.054626465	
1740990904171	-0.2470398	
1740990904172	-0.2027893	
1740990904173	-0.23262024	
1740990904174	-0.24871826	
1740990904175	-0.18348694	
1740990904176	-0.23170471	
1740990904177	-0.21705627	
1740990904178	-0.17829895	
1740990904179	-0.22087097	
1740990904180	-0.10757446	
1740990904181	-0.019836426	
1740990904182	-0.107040405	
1740990904183	-0.06828308	
1740990904184	0.055236816	
1740990904185	0.2191925	
1740990904186	0.24864197	
1740990904187	0.045928955	
1740990904188	0.09498596	
1740990904189	0.23017883	
1740990904190	0.25985718	
1740990904191	0.27053833	
1740990904192	0.059509277	
1740990904193	0.03303528	
1740990904194	0.12382507	
1740990904195	0.12062073	
1740990904196	0.27557373	
1740990904197	0.05973816	
1740990904198	-0.2319336	
1740990904199	-0.12664795	
1740990904200	-0.26130676	
1740990904201	-0.4637146	
1740990904202	-0.33058167	
1740990904203	-0.029525757	
1740990904204	0.19615173	
1740990904205	0.07408142	
1740990904206	-0.18585205	
1740990904207	-0.2545929	
1740990904208	-0.14503479	
1740990904209	0.07110596	
1740990904210	0.060043335	
1740990904211	-0.08743286	
1740990904212	0.09124756	
1740990904213	0.24467468	
1740990904214	0.18249512	
1740990904215	0.018539429	
1740990904216	-0.27542114	
1740990904217	-0.28282166	
1740990904218	0.17433167	
1740990904219	0.67085266	
1740990904220	0.47157288	
1740990904221	-0.15853882	
1740990904222	-0.2117157	
1740990904223	-0.044326782	
1740990904224	0.038604736	
1740990904225	0.3050995	
1740990904226	0.31188965	
1740990904227	-0.18814087	
1740990904228	-0.48599243	
1740990904229	-0.1914978	
1740990904230	0.010681152	
1740990904231	0.22377014	
1740990904232	0.47592163	
1740990904233	0.15556335	
1740990904234	-0.1902008	
1740990904235	-0.3023529	
1740990904236	-0.38887024	
1740990904237	-0.28930664	
1740990904238	-0.0718689	
1740990904239	0.063323975	
1740990904240	0.011291504	
1740990904241	-0.037841797	
1740990904242	-0.082092285	
1740990904243	-0.18310547	
1740990904244	-0.17852783	
1740990904245	-0.19889832	
1740990904246	-0.1259613	
1740990904247	0.088653564	
1740990904248	0.23765564	
1740990904249	0.14968872	
1740990904250	-0.05744934	
1740990904251	0.23048401	
1740990904252	0.6982422	
1740990904253	0.5896759	
1740990904254	0.1776886	
1740990904255	0.055389404	
1740990904256	-9.1552734E-4	
1740990904257	-0.29449463	
1740990904258	-0.35888672	
1740990904259	-0.18936157	
1740990904260	0.004501343	
1740990904261	0.1499176	
1740990904262	0.027389526	
1740990904263	-0.20675659	
1740990904264	-0.4322052	
1740990904265	-0.45196533	
1740990904266	-0.2243042	
1740990904267	0.02128601	
1740990904268	0.23353577	
1740990904269	0.317688	
1740990904270	0.24765015	
1740990904271	0.24047852	
1740990904272	0.28327942	
1740990904273	-0.004425049	
1740990904274	-0.2431488	
1740990904275	-0.2521515	
1740990904276	-0.34187317	
1740990904277	-0.14282227	
1740990904278	0.12702942	
1740990904279	0.100250244	
1740990904280	0.1953888	
1740990904281	0.41152954	
1740990904282	0.16326904	
1740990904283	-0.14595032	
1740990904284	-0.041275024	
1740990904285	-0.26481628	
1740990904286	-0.35110474	
1740990904287	0.1322937	
1740990904288	0.1511383	
1740990904289	0.039520264	
1740990904290	0.09811401	
1740990904291	0.0025177002	
1740990904292	0.019302368	
1740990904293	0.05783081	
1740990904294	0.1210022	
1740990904295	0.06614685	
1740990904296	-0.16777039	
1740990904297	-0.2319336	
1740990904298	-0.284729	
1740990904299	-0.36956787	
1740990904300	-0.013580322	
1740990904301	0.5239868	
1740990904302	0.34309387	
1740990904303	-0.028686523	
1740990904304	0.054397583	
1740990904305	0.10185242	
1740990904306	0.08644104	
1740990904307	-0.0982666	
1740990904308	-0.18165588	
1740990904309	0.07766724	
1740990904310	-0.102767944	
1740990904311	-0.36987305	
1740990904312	-0.17875671	
1740990904313	-0.016403198	
1740990904314	0.072250366	
1740990904315	0.1701355	
1740990904316	0.20080566	
1740990904317	0.086746216	
1740990904318	0.04096985	
1740990904319	0.11375427	
1740990904320	0.04600525	
1740990904321	0.06637573	
1740990904322	0.09353638	
1740990904323	0.20942688	
1740990904324	0.23498535	
1740990904325	-0.15937805	
