# OpenSignals Text File Format
# {"00:80:E1:26:9F:85":{"sensor":["EMG"],"device name":"00:80:E1:26:9F:85","column":["timestamp","EMG"],"sync interval":2,"time":"13:53:08","comments":"","keywords":"","device connection":"BLE00:80:E1:26:9F:85","channels":[0],"date":"2025-01-27","mode":0,"digital IO":[],"firmware version":259,"device":"musclebanplux","position":0,"sampling rate":1000,"label":["EMG"],"resolution":[16],"special":[{}],"sleeve color":["UNKNOWN"]}}
# EndOfHeader
1737982389254	0.0059509277	
1737982389255	-0.0011444092	
1737982389256	0.002822876	
1737982389257	0.0048828125	
1737982389258	-0.0024414062	
1737982389259	-0.006790161	
1737982389260	-0.0063323975	
1737982389261	-0.010223389	
1737982389262	-0.010147095	
1737982389263	-0.008239746	
1737982389264	-0.004196167	
1737982389265	0.0063323975	
1737982389266	0.003967285	
1737982389267	0.008544922	
1737982389268	0.0146484375	
1737982389269	-8.392334E-4	
1737982389270	0.0046539307	
1737982389271	0.018157959	
1737982389272	0.01159668	
1737982389273	0.004119873	
1737982389274	-0.0090789795	
1737982389275	-0.023651123	
1737982389276	-0.02243042	
1737982389277	-0.018539429	
1737982389278	-0.011291504	
1737982389279	0.0038146973	
1737982389280	0.01159668	
1737982389281	0.009918213	
1737982389282	0.012664795	
1737982389283	0.010299683	
1737982389284	7.6293945E-5	
1737982389285	0.0	
1737982389286	-0.0051879883	
1737982389287	0.004348755	
1737982389288	0.015106201	
1737982389289	0.0012969971	
1737982389290	-7.6293945E-4	
1737982389291	-0.0022888184	
1737982389292	-0.0035858154	
1737982389293	0.0032806396	
1737982389294	0.007019043	
1737982389295	0.0064849854	
1737982389296	-0.0050354004	
1737982389297	-0.009765625	
1737982389298	-0.007858276	
1737982389299	-0.0062561035	
1737982389300	-0.0038146973	
1737982389301	7.6293945E-4	
1737982389302	-4.5776367E-4	
1737982389303	-0.0010681152	
1737982389304	0.005722046	
1737982389305	0.007858276	
1737982389306	-0.0010681152	
1737982389307	-0.0048065186	
1737982389308	-0.0021362305	
1737982389309	0.00289917	
1737982389310	0.00289917	
1737982389311	0.0034332275	
1737982389312	0.005264282	
1737982389313	0.005722046	
1737982389314	-0.004043579	
1737982389315	-0.009307861	
1737982389316	-0.0012207031	
1737982389317	0.009536743	
1737982389318	0.005340576	
1737982389319	-0.015716553	
1737982389320	-0.011138916	
1737982389321	-0.0038146973	
1737982389322	9.918213E-4	
1737982389323	0.023040771	
1737982389324	0.024261475	
1737982389325	0.016555786	
1737982389326	0.02067566	
1737982389327	9.1552734E-4	
1737982389328	-0.017166138	
1737982389329	-0.029220581	
1737982389330	-0.05973816	
1737982389331	-0.06690979	
1737982389332	-0.038146973	
1737982389333	-0.020980835	
1737982389334	0.0021362305	
1737982389335	0.038604736	
1737982389336	0.041732788	
1737982389337	0.042648315	
1737982389338	0.10177612	
1737982389339	0.1146698	
1737982389340	0.059280396	
1737982389341	0.0029754639	
1737982389342	-0.07888794	
1737982389343	-0.12161255	
1737982389344	-0.099105835	
1737982389345	-0.040893555	
1737982389346	0.024490356	
1737982389347	0.04638672	
1737982389348	0.066986084	
1737982389349	0.043029785	
1737982389350	-0.034332275	
1737982389351	-0.044021606	
1737982389352	-0.026321411	
1737982389353	0.0063323975	
1737982389354	0.036468506	
1737982389355	0.018615723	
1737982389356	0.007171631	
1737982389357	0.01083374	
1737982389358	-0.016326904	
1737982389359	-0.060195923	
1737982389360	-0.03074646	
1737982389361	0.016937256	
1737982389362	0.03227234	
1737982389363	0.026626587	
1737982389364	-0.023040771	
1737982389365	-0.03768921	
1737982389366	-0.0037384033	
1737982389367	0.04257202	
1737982389368	0.033111572	
1737982389369	-0.01373291	
1737982389370	-0.018310547	
1737982389371	-0.045318604	
1737982389372	-0.044631958	
1737982389373	-0.03250122	
1737982389374	-0.022354126	
1737982389375	-0.004043579	
1737982389376	-0.07797241	
1737982389377	-0.116119385	
1737982389378	-0.04776001	
1737982389379	0.07598877	
1737982389380	0.17799377	
1737982389381	0.13336182	
1737982389382	0.117874146	
1737982389383	0.18928528	
1737982389384	0.17166138	
1737982389385	0.14175415	
1737982389386	0.12260437	
1737982389387	0.038909912	
1737982389388	-0.04623413	
1737982389389	-0.12489319	
1737982389390	-0.15319824	
1737982389391	-0.12313843	
1737982389392	-0.12084961	
1737982389393	-0.12397766	
1737982389394	-0.11642456	
1737982389395	-0.12336731	
1737982389396	-0.119018555	
1737982389397	-0.10169983	
1737982389398	-0.05683899	
1737982389399	-0.016937256	
1737982389400	-0.020828247	
1737982389401	-0.018234253	
1737982389402	-0.009841919	
1737982389403	0.0015258789	
1737982389404	0.044784546	
1737982389405	0.078430176	
1737982389406	0.079193115	
1737982389407	0.031280518	
1737982389408	0.028305054	
1737982389409	0.06614685	
1737982389410	0.0793457	
1737982389411	0.100097656	
1737982389412	0.09307861	
1737982389413	0.07835388	
1737982389414	0.069732666	
1737982389415	0.059890747	
1737982389416	0.060653687	
1737982389417	0.018310547	
1737982389418	-0.028762817	
1737982389419	-0.029830933	
1737982389420	-0.02281189	
1737982389421	-0.01953125	
1737982389422	-0.029067993	
1737982389423	-0.022125244	
1737982389424	-0.027008057	
1737982389425	-0.058670044	
1737982389426	-0.057678223	
1737982389427	-0.042648315	
1737982389428	-0.037384033	
1737982389429	-0.057296753	
1737982389430	-0.049972534	
1737982389431	-0.029220581	
1737982389432	-0.026550293	
1737982389433	0.012359619	
1737982389434	0.01449585	
1737982389435	-0.008621216	
1737982389436	0.014038086	
1737982389437	0.065460205	
1737982389438	0.12687683	
1737982389439	0.08415222	
1737982389440	-0.027999878	
1737982389441	-0.060958862	
1737982389442	-0.016708374	
1737982389443	0.026855469	
1737982389444	-0.03479004	
1737982389445	-0.119018555	
1737982389446	-0.10673523	
1737982389447	-0.03929138	
1737982389448	0.06576538	
1737982389449	0.15472412	
1737982389450	0.14190674	
1737982389451	0.080566406	
1737982389452	-0.0032043457	
1737982389453	-0.08468628	
1737982389454	-0.08216858	
1737982389455	-0.050735474	
1737982389456	-0.04196167	
1737982389457	-0.009460449	
1737982389458	0.047225952	
1737982389459	0.08880615	
1737982389460	0.054855347	
1737982389461	0.017166138	
1737982389462	0.012512207	
1737982389463	-0.02357483	
1737982389464	-0.035476685	
1737982389465	-0.04272461	
1737982389466	-0.0667572	
1737982389467	-0.06919861	
1737982389468	-0.044784546	
1737982389469	0.0012207031	
1737982389470	-5.340576E-4	
1737982389471	-0.01876831	
1737982389472	0.005874634	
1737982389473	0.051727295	
1737982389474	0.05821228	
1737982389475	0.016937256	
1737982389476	-0.043563843	
1737982389477	-0.055389404	
1737982389478	-0.014419556	
1737982389479	0.041046143	
1737982389480	0.077056885	
1737982389481	0.029754639	
1737982389482	0.020599365	
1737982389483	0.036087036	
1737982389484	-0.015029907	
1737982389485	-0.026931763	
1737982389486	-0.033493042	
1737982389487	-0.052719116	
1737982389488	-0.03364563	
1737982389489	0.016860962	
1737982389490	0.05973816	
1737982389491	0.068359375	
1737982389492	0.07141113	
1737982389493	0.057373047	
1737982389494	0.02128601	
1737982389495	0.029144287	
1737982389496	0.03593445	
1737982389497	-0.019073486	
1737982389498	-0.052947998	
1737982389499	-0.06347656	
1737982389500	-0.05493164	
1737982389501	-0.025787354	
1737982389502	-0.027389526	
1737982389503	-0.038375854	
1737982389504	-0.025177002	
1737982389505	0.0025939941	
1737982389506	-0.0090789795	
1737982389507	-0.024719238	
1737982389508	-0.035858154	
1737982389509	-0.053329468	
1737982389510	-0.019226074	
1737982389511	0.015792847	
1737982389512	0.017547607	
1737982389513	0.025177002	
1737982389514	0.054855347	
1737982389515	0.09490967	
1737982389516	0.07980347	
1737982389517	0.017166138	
1737982389518	0.008163452	
1737982389519	0.0036621094	
1737982389520	-0.021362305	
1737982389521	-0.02029419	
1737982389522	-0.02243042	
1737982389523	-0.008010864	
1737982389524	-0.0062561035	
1737982389525	-0.030975342	
1737982389526	-0.017623901	
1737982389527	-0.009918213	
1737982389528	-0.0075531006	
1737982389529	0.010604858	
1737982389530	-0.001373291	
1737982389531	-0.018234253	
1737982389532	-0.026931763	
1737982389533	-0.0466156	
1737982389534	-0.038146973	
1737982389535	0.010299683	
1737982389536	0.059661865	
1737982389537	0.053329468	
1737982389538	0.02281189	
1737982389539	0.027389526	
1737982389540	-0.0060272217	
1737982389541	0.013427734	
1737982389542	0.097579956	
1737982389543	0.070495605	
1737982389544	-0.016403198	
1737982389545	-0.048599243	
1737982389546	-0.039901733	
1737982389547	-0.015792847	
1737982389548	-0.026779175	
1737982389549	-0.023422241	
1737982389550	-0.0031280518	
1737982389551	-0.027923584	
1737982389552	-0.022659302	
1737982389553	-0.024261475	
1737982389554	-0.034713745	
1737982389555	-0.026245117	
1737982389556	-0.038986206	
1737982389557	-0.038604736	
1737982389558	-0.029067993	
1737982389559	-0.015182495	
1737982389560	0.010375977	
1737982389561	0.049819946	
1737982389562	0.094070435	
1737982389563	0.123062134	
1737982389564	0.119628906	
1737982389565	0.06866455	
1737982389566	0.0021362305	
1737982389567	-0.019073486	
1737982389568	-0.015029907	
1737982389569	-0.020523071	
1737982389570	-0.01953125	
1737982389571	-0.036392212	
1737982389572	-0.0718689	
1737982389573	-0.07461548	
1737982389574	-0.046920776	
1737982389575	-0.042419434	
1737982389576	-0.027770996	
1737982389577	0.038146973	
1737982389578	0.06538391	
1737982389579	0.011291504	
1737982389580	0.03944397	
1737982389581	0.049743652	
1737982389582	-0.090408325	
1737982389583	-0.0995636	
1737982389584	-0.005569458	
1737982389585	0.04508972	
1737982389586	0.10444641	
1737982389587	0.016937256	
1737982389588	-0.01335144	
1737982389589	0.081100464	
1737982389590	-0.02029419	
1737982389591	-0.07392883	
1737982389592	-0.01159668	
1737982389593	0.035095215	
1737982389594	0.07133484	
1737982389595	-0.0031280518	
1737982389596	-0.024490356	
1737982389597	0.009994507	
1737982389598	-0.02456665	
1737982389599	-0.013809204	
1737982389600	3.0517578E-4	
1737982389601	-0.014343262	
1737982389602	-0.01335144	
1737982389603	-0.013122559	
1737982389604	-0.010528564	
1737982389605	-0.009384155	
1737982389606	-0.006790161	
1737982389607	-7.6293945E-5	
1737982389608	0.0015258789	
1737982389609	0.0061798096	
1737982389610	0.0062561035	
1737982389611	0.0031280518	
1737982389612	0.01159668	
1737982389613	0.011444092	
1737982389614	0.0024414062	
1737982389615	-0.0064086914	
1737982389616	-0.016860962	
1737982389617	-0.023880005	
1737982389618	-0.006790161	
1737982389619	0.0024414062	
1737982389620	0.00579834	
1737982389621	0.018463135	
1737982389622	0.009384155	
1737982389623	-0.0012969971	
1737982389624	-0.001449585	
1737982389625	-0.0033569336	
1737982389626	0.011367798	
1737982389627	0.018692017	
1737982389628	-0.01449585	
1737982389629	-0.022354126	
1737982389630	0.006713867	
1737982389631	0.019454956	
1737982389632	0.02357483	
1737982389633	0.0050354004	
1737982389634	-0.004348755	
1737982389635	0.0045776367	
1737982389636	0.001373291	
1737982389637	0.006713867	
1737982389638	0.0066375732	
1737982389639	0.005874634	
1737982389640	0.01373291	
1737982389641	0.03112793	
1737982389642	0.036849976	
1737982389643	0.013961792	
1737982389644	-0.017318726	
1737982389645	-0.044174194	
1737982389646	-0.0869751	
1737982389647	-0.117874146	
1737982389648	-0.09597778	
1737982389649	-0.075683594	
1737982389650	-0.043945312	
1737982389651	0.022125244	
1737982389652	0.10147095	
1737982389653	0.12748718	
1737982389654	0.08491516	
1737982389655	0.038375854	
1737982389656	0.040740967	
1737982389657	0.052337646	
1737982389658	-0.025177002	
1737982389659	-0.08880615	
1737982389660	-0.050125122	
1737982389661	9.918213E-4	
1737982389662	0.06614685	
1737982389663	0.10391235	
1737982389664	0.080566406	
1737982389665	0.08163452	
1737982389666	0.07347107	
1737982389667	0.024337769	
1737982389668	-0.05065918	
1737982389669	-0.14442444	
1737982389670	-0.13900757	
1737982389671	-0.05531311	
1737982389672	-0.043640137	
1737982389673	-0.087890625	
1737982389674	-0.047531128	
1737982389675	-0.0024414062	
1737982389676	-0.038223267	
1737982389677	-0.032958984	
1737982389678	-0.03692627	
1737982389679	-0.03593445	
1737982389680	0.026016235	
1737982389681	0.07858276	
1737982389682	0.13999939	
1737982389683	0.18371582	
1737982389684	0.15693665	
1737982389685	0.038528442	
1737982389686	-0.096969604	
1737982389687	-0.094451904	
1737982389688	-0.032958984	
1737982389689	0.0029754639	
1737982389690	0.016784668	
1737982389691	-0.002822876	
1737982389692	0.044784546	
1737982389693	0.07644653	
1737982389694	-0.005645752	
1737982389695	-0.08369446	
1737982389696	-0.10498047	
1737982389697	-0.13717651	
1737982389698	-0.18966675	
1737982389699	-0.14678955	
1737982389700	-0.027008057	
1737982389701	0.048675537	
1737982389702	0.10398865	
1737982389703	0.111846924	
1737982389704	0.08476257	
1737982389705	0.1235199	
1737982389706	0.13191223	
1737982389707	0.07171631	
1737982389708	0.025100708	
1737982389709	0.020980835	
1737982389710	0.030899048	
1737982389711	0.013809204	
1737982389712	-0.011520386	
1737982389713	-0.0440979	
1737982389714	-0.0680542	
1737982389715	-0.08049011	
1737982389716	-0.091552734	
1737982389717	-0.031204224	
1737982389718	0.039901733	
1737982389719	0.05958557	
1737982389720	0.0667572	
1737982389721	7.6293945E-4	
1737982389722	-0.11077881	
1737982389723	-0.15136719	
1737982389724	-0.07751465	
1737982389725	0.075302124	
1737982389726	0.105285645	
1737982389727	0.020599365	
1737982389728	0.004196167	
1737982389729	-0.033187866	
1737982389730	-0.053024292	
1737982389731	0.013656616	
1737982389732	0.023498535	
1737982389733	0.015563965	
1737982389734	0.016098022	
1737982389735	7.6293945E-5	
1737982389736	0.002670288	
1737982389737	0.0059509277	
1737982389738	0.008926392	
1737982389739	0.0051116943	
1737982389740	0.020217896	
1737982389741	0.06828308	
1737982389742	0.0680542	
1737982389743	0.002670288	
1737982389744	-0.021514893	
1737982389745	-0.012741089	
1737982389746	-0.028533936	
1737982389747	-0.022735596	
1737982389748	-0.018234253	
1737982389749	-0.022583008	
1737982389750	-0.011367798	
1737982389751	-0.017852783	
1737982389752	-0.012435913	
1737982389753	-0.0059509277	
1737982389754	-0.00793457	
1737982389755	-0.0019836426	
1737982389756	-0.006713867	
1737982389757	-0.007095337	
1737982389758	-0.0073242188	
1737982389759	-1.5258789E-4	
1737982389760	0.014038086	
1737982389761	0.015029907	
1737982389762	0.010681152	
1737982389763	0.0030517578	
1737982389764	-0.00869751	
1737982389765	-0.00869751	
1737982389766	-0.0038146973	
1737982389767	0.0038909912	
1737982389768	0.018234253	
1737982389769	0.032958984	
1737982389770	0.04043579	
1737982389771	0.033569336	
1737982389772	0.028381348	
1737982389773	0.01991272	
1737982389774	-0.008087158	
1737982389775	-0.024795532	
1737982389776	-0.031280518	
1737982389777	-0.045013428	
1737982389778	-0.05859375	
1737982389779	-0.06843567	
1737982389780	-0.03616333	
1737982389781	0.00289917	
1737982389782	0.019378662	
1737982389783	0.02571106	
1737982389784	0.039367676	
1737982389785	0.06607056	
1737982389786	0.05897522	
1737982389787	0.022506714	
1737982389788	0.0064086914	
1737982389789	-0.024490356	
1737982389790	-0.07369995	
1737982389791	-0.065460205	
1737982389792	-0.012588501	
1737982389793	-0.008239746	
1737982389794	-0.012207031	
1737982389795	-0.0011444092	
1737982389796	0.005264282	
1737982389797	0.037765503	
1737982389798	0.06225586	
1737982389799	0.07751465	
1737982389800	0.07766724	
1737982389801	0.028457642	
1737982389802	-0.024261475	
1737982389803	-0.039749146	
1737982389804	-0.03555298	
1737982389805	-0.03303528	
1737982389806	-0.026245117	
1737982389807	-0.018615723	
1737982389808	-0.016860962	
1737982389809	-0.014724731	
1737982389810	-0.0104522705	
1737982389811	-0.006942749	
1737982389812	-0.004348755	
1737982389813	-0.008468628	
1737982389814	-0.013198853	
1737982389815	-0.00793457	
1737982389816	-0.0012969971	
1737982389817	0.0012969971	
1737982389818	0.006790161	
1737982389819	0.018005371	
1737982389820	0.023117065	
1737982389821	0.0075531006	
1737982389822	0.0016021729	
1737982389823	0.008392334	
1737982389824	0.008926392	
1737982389825	0.016021729	
1737982389826	0.009841919	
1737982389827	0.0012969971	
1737982389828	-0.01083374	
1737982389829	-0.025253296	
1737982389830	-0.008010864	
1737982389831	0.001449585	
1737982389832	-0.00793457	
1737982389833	3.0517578E-4	
1737982389834	0.014343262	
1737982389835	0.028686523	
1737982389836	0.028915405	
1737982389837	0.004425049	
1737982389838	-0.011749268	
1737982389839	-0.0075531006	
1737982389840	-0.0075531006	
1737982389841	-0.013046265	
1737982389842	-0.01586914	
1737982389843	-0.0063323975	
1737982389844	-0.0011444092	
1737982389845	0.0012207031	
1737982389846	0.0020599365	
1737982389847	-0.0060272217	
1737982389848	-0.0022125244	
1737982389849	-0.0023651123	
1737982389850	-0.0066375732	
1737982389851	0.0016021729	
1737982389852	0.001449585	
1737982389853	9.918213E-4	
1737982389854	0.0050354004	
1737982389855	0.010375977	
1737982389856	0.012817383	
1737982389857	0.0037384033	
1737982389858	0.021057129	
1737982389859	0.0034332275	
1737982389860	-0.047607422	
1737982389861	-0.011978149	
1737982389862	-0.00793457	
1737982389863	-0.013961792	
1737982389864	0.04890442	
1737982389865	0.017700195	
1737982389866	-0.046691895	
1737982389867	-0.02960205	
1737982389868	-0.005874634	
1737982389869	0.006942749	
1737982389870	0.015640259	
1737982389871	0.033721924	
1737982389872	0.083236694	
1737982389873	0.10681152	
1737982389874	0.042800903	
1737982389875	-0.04096985	
1737982389876	-0.051956177	
1737982389877	-0.03768921	
1737982389878	-0.029907227	
1737982389879	-0.0076293945	
1737982389880	0.011749268	
1737982389881	0.019683838	
1737982389882	-0.009002686	
1737982389883	-0.064086914	
1737982389884	-0.1361084	
1737982389885	-0.19256592	
1737982389886	-0.14480591	
1737982389887	-0.083618164	
1737982389888	-0.055618286	
1737982389889	0.057296753	
1737982389890	0.21018982	
1737982389891	0.29312134	
1737982389892	0.30525208	
1737982389893	0.22277832	
1737982389894	0.035324097	
1737982389895	-0.080947876	
1737982389896	-0.06729126	
1737982389897	-0.083847046	
1737982389898	-0.0894928	
1737982389899	-0.06996155	
1737982389900	-0.06729126	
1737982389901	-0.054016113	
1737982389902	-0.051956177	
1737982389903	-0.03501892	
1737982389904	-0.004196167	
1737982389905	0.013427734	
1737982389906	0.03578186	
1737982389907	0.03303528	
1737982389908	-0.010070801	
1737982389909	-0.049209595	
1737982389910	-0.06011963	
1737982389911	-0.06088257	
1737982389912	-0.034179688	
1737982389913	0.0036621094	
1737982389914	-0.014190674	
1737982389915	-0.031967163	
1737982389916	0.012435913	
1737982389917	0.0806427	
1737982389918	0.124053955	
1737982389919	0.114746094	
1737982389920	0.077819824	
1737982389921	0.030975342	
1737982389922	-0.024337769	
1737982389923	-0.055160522	
1737982389924	-0.06034851	
1737982389925	-0.01625061	
1737982389926	0.033416748	
1737982389927	0.008392334	
1737982389928	-7.6293945E-4	
1737982389929	0.006713867	
1737982389930	-0.015792847	
1737982389931	-0.01876831	
1737982389932	0.001449585	
1737982389933	0.039215088	
1737982389934	-3.8146973E-4	
1737982389935	-0.037002563	
1737982389936	-6.866455E-4	
1737982389937	-0.036849976	
1737982389938	-0.037231445	
1737982389939	0.0032806396	
1737982389940	-0.016479492	
1737982389941	9.918213E-4	
1737982389942	0.011749268	
1737982389943	-0.0015258789	
1737982389944	0.015182495	
1737982389945	0.010986328	
1737982389946	0.008468628	
1737982389947	0.008010864	
1737982389948	-0.007247925	
1737982389949	-0.009231567	
1737982389950	-0.010910034	
1737982389951	-0.013122559	
1737982389952	-0.008621216	
1737982389953	-0.0012207031	
1737982389954	0.0038909912	
1737982389955	0.001373291	
1737982389956	0.00831604	
1737982389957	0.010910034	
1737982389958	0.0038909912	
1737982389959	-0.0074005127	
1737982389960	-0.016708374	
1737982389961	-0.0075531006	
1737982389962	-0.004425049	
1737982389963	0.0038146973	
1737982389964	0.011978149	
1737982389965	-0.023803711	
1737982389966	-0.033340454	
1737982389967	0.004425049	
1737982389968	0.023880005	
1737982389969	0.039596558	
1737982389970	0.060043335	
1737982389971	0.06851196	
1737982389972	0.029144287	
1737982389973	-0.029449463	
1737982389974	-0.017318726	
1737982389975	0.024795532	
1737982389976	0.025939941	
1737982389977	-0.017089844	
1737982389978	-0.05455017	
1737982389979	-0.049209595	
1737982389980	-0.052490234	
1737982389981	-0.060958862	
1737982389982	-0.027236938	
1737982389983	0.0035095215	
1737982389984	0.0020599365	
1737982389985	0.012512207	
1737982389986	0.027618408	
1737982389987	0.014266968	
1737982389988	-0.0051116943	
1737982389989	-0.0046539307	
1737982389990	0.0132751465	
1737982389991	0.02243042	
1737982389992	0.026779175	
1737982389993	0.05142212	
1737982389994	0.04951477	
1737982389995	0.0031280518	
1737982389996	-0.01777649	
1737982389997	-0.009765625	
1737982389998	-0.0074005127	
1737982389999	0.018081665	
1737982390000	0.02998352	
1737982390001	0.025863647	
1737982390002	0.03303528	
1737982390003	-2.2888184E-4	
1737982390004	-0.06896973	
1737982390005	-0.12588501	
1737982390006	-0.081100464	
1737982390007	0.0024414062	
1737982390008	0.023040771	
1737982390009	0.030136108	
1737982390010	-0.0022888184	
1737982390011	-0.016174316	
1737982390012	0.027389526	
1737982390013	0.0756073	
1737982390014	0.070877075	
1737982390015	-0.05340576	
1737982390016	-0.13397217	
1737982390017	-0.11268616	
1737982390018	-0.07003784	
1737982390019	0.0047302246	
1737982390020	0.0045776367	
1737982390021	0.0037384033	
1737982390022	0.0769043	
1737982390023	0.10070801	
1737982390024	0.12939453	
1737982390025	0.09590149	
1737982390026	6.1035156E-4	
1737982390027	0.00869751	
1737982390028	-1.5258789E-4	
1737982390029	-0.022354126	
1737982390030	0.016326904	
1737982390031	0.037078857	
1737982390032	0.016326904	
1737982390033	-0.033111572	
1737982390034	-0.015258789	
1737982390035	0.009384155	
1737982390036	-0.038986206	
1737982390037	-0.05378723	
1737982390038	-0.051651	
1737982390039	-0.04928589	
1737982390040	-0.030822754	
1737982390041	-0.024871826	
1737982390042	-0.010375977	
1737982390043	0.017089844	
1737982390044	0.032577515	
1737982390045	0.029144287	
1737982390046	0.03845215	
1737982390047	0.022354126	
1737982390048	-0.044784546	
1737982390049	-0.072250366	
1737982390050	-0.07026672	
1737982390051	-0.054473877	
1737982390052	-0.021057129	
1737982390053	-0.015335083	
1737982390054	0.052337646	
1737982390055	0.15724182	
1737982390056	0.10475159	
1737982390057	-0.023651123	
1737982390058	-0.05569458	
1737982390059	-0.0541687	
1737982390060	-0.031204224	
1737982390061	0.030059814	
1737982390062	0.026931763	
1737982390063	-0.018234253	
1737982390064	-0.021514893	
1737982390065	-0.021896362	
1737982390066	-0.040512085	
1737982390067	-0.023117065	
1737982390068	0.013427734	
1737982390069	0.06858826	
1737982390070	0.20881653	
1737982390071	0.24406433	
1737982390072	0.0030517578	
1737982390073	-0.15838623	
1737982390074	-0.07270813	
1737982390075	0.018692017	
1737982390076	0.0051116943	
1737982390077	-0.055923462	
1737982390078	-7.6293945E-4	
1737982390079	0.017623901	
1737982390080	-0.049438477	
1737982390081	-0.046081543	
1737982390082	-0.045318604	
1737982390083	-0.028457642	
1737982390084	-0.020904541	
1737982390085	0.0061798096	
1737982390086	0.034103394	
1737982390087	-0.02281189	
1737982390088	-0.023040771	
1737982390089	0.029220581	
1737982390090	0.049743652	
1737982390091	0.00793457	
1737982390092	-0.07476807	
1737982390093	-0.103530884	
1737982390094	-0.07347107	
1737982390095	-0.047683716	
1737982390096	-0.03074646	
1737982390097	0.031280518	
1737982390098	0.046920776	
1737982390099	-0.03479004	
1737982390100	-0.04600525	
1737982390101	0.046463013	
1737982390102	0.07728577	
1737982390103	0.046157837	
1737982390104	0.070877075	
1737982390105	0.119628906	
1737982390106	0.11505127	
1737982390107	0.064315796	
1737982390108	-0.0045776367	
1737982390109	-0.03036499	
1737982390110	0.013427734	
1737982390111	0.030136108	
1737982390112	0.005645752	
1737982390113	-0.019454956	
1737982390114	-0.049743652	
1737982390115	-0.030517578	
1737982390116	-0.004272461	
1737982390117	-0.043563843	
1737982390118	-0.0743103	
1737982390119	-0.059127808	
1737982390120	-0.060806274	
1737982390121	-0.066833496	
1737982390122	-0.022277832	
1737982390123	0.02456665	
1737982390124	0.06843567	
1737982390125	0.12023926	
1737982390126	0.094451904	
1737982390127	0.026855469	
1737982390128	0.017089844	
1737982390129	0.007247925	
1737982390130	-0.021820068	
1737982390131	-0.05104065	
1737982390132	-0.10192871	
1737982390133	-0.10810852	
1737982390134	-0.10597229	
1737982390135	-0.061645508	
1737982390136	0.005874634	
1737982390137	-0.028839111	
1737982390138	0.0048065186	
1737982390139	0.034561157	
1737982390140	0.020751953	
1737982390141	0.05393982	
1737982390142	0.034866333	
1737982390143	0.03944397	
1737982390144	0.041122437	
1737982390145	0.021133423	
1737982390146	0.045318604	
1737982390147	0.056991577	
1737982390148	0.040512085	
1737982390149	0.007019043	
1737982390150	-0.009689331	
1737982390151	9.918213E-4	
1737982390152	-0.003967285	
1737982390153	-0.0075531006	
1737982390154	0.0062561035	
1737982390155	0.007019043	
1737982390156	3.8146973E-4	
1737982390157	-0.0063323975	
1737982390158	-0.01876831	
1737982390159	-0.027008057	
1737982390160	-0.03303528	
1737982390161	-0.038223267	
1737982390162	-0.012664795	
1737982390163	0.01586914	
1737982390164	0.008773804	
1737982390165	9.918213E-4	
1737982390166	0.011138916	
1737982390167	0.022201538	
1737982390168	0.022506714	
1737982390169	0.0074768066	
1737982390170	-0.0020599365	
1737982390171	-0.012817383	
1737982390172	-0.026626587	
1737982390173	-0.020370483	
1737982390174	-0.015640259	
1737982390175	-0.015106201	
1737982390176	-0.0036621094	
1737982390177	-0.001373291	
1737982390178	-0.01777649	
1737982390179	-0.02204895	
1737982390180	-0.01953125	
1737982390181	-0.023422241	
1737982390182	-0.02708435	
1737982390183	-0.014572144	
1737982390184	0.0076293945	
1737982390185	0.026473999	
1737982390186	0.055160522	
1737982390187	0.041503906	
1737982390188	0.012664795	
1737982390189	0.035247803	
1737982390190	-0.015182495	
1737982390191	-0.11505127	
1737982390192	-0.09727478	
1737982390193	0.0018310547	
1737982390194	0.061264038	
1737982390195	0.08834839	
1737982390196	0.22285461	
1737982390197	0.23979187	
1737982390198	0.051193237	
1737982390199	-0.05256653	
1737982390200	-0.08201599	
1737982390201	-0.079422	
1737982390202	-0.08766174	
1737982390203	-0.108184814	
1737982390204	-0.08544922	
1737982390205	-0.02784729	
1737982390206	0.012893677	
1737982390207	-0.04081726	
1737982390208	-0.025787354	
1737982390209	0.044021606	
1737982390210	0.0018310547	
1737982390211	-0.025787354	
1737982390212	-0.044708252	
1737982390213	-0.10437012	
1737982390214	-0.120773315	
1737982390215	-0.055007935	
1737982390216	0.02670288	
1737982390217	0.028839111	
1737982390218	0.036468506	
1737982390219	0.077056885	
1737982390220	0.12809753	
1737982390221	0.18211365	
1737982390222	0.15808105	
1737982390223	0.083618164	
1737982390224	0.011672974	
1737982390225	-0.045928955	
1737982390226	-0.049972534	
1737982390227	-0.03326416	
1737982390228	-0.018997192	
1737982390229	-0.017547607	
1737982390230	-0.025558472	
1737982390231	-0.013961792	
1737982390232	-7.6293945E-4	
1737982390233	-0.019378662	
1737982390234	-0.03425598	
1737982390235	-0.031967163	
1737982390236	-0.03440857	
1737982390237	-0.034561157	
1737982390238	-0.02319336	
1737982390239	-0.016555786	
1737982390240	-0.0146484375	
1737982390241	-0.0046539307	
1737982390242	0.0050354004	
1737982390243	0.0030517578	
1737982390244	-0.0074768066	
1737982390245	-1.5258789E-4	
1737982390246	3.0517578E-4	
1737982390247	-0.014572144	
1737982390248	7.6293945E-5	
1737982390249	0.03479004	
1737982390250	0.047073364	
1737982390251	0.035629272	
1737982390252	0.027008057	
1737982390253	-5.340576E-4	
1737982390254	-0.028686523	
1737982390255	-0.03303528	
1737982390256	-0.027999878	
1737982390257	-0.009765625	
1737982390258	0.017623901	
1737982390259	0.039520264	
1737982390260	0.05180359	
1737982390261	0.043792725	
1737982390262	0.0061035156	
1737982390263	-0.026550293	
1737982390264	-0.02418518	
1737982390265	-0.012207031	
1737982390266	-0.02128601	
1737982390267	-0.015640259	
1737982390268	0.0033569336	
1737982390269	0.0019073486	
1737982390270	0.012207031	
1737982390271	0.022506714	
1737982390272	0.018005371	
1737982390273	0.005264282	
1737982390274	-0.019454956	
1737982390275	-0.033721924	
1737982390276	-0.025558472	
1737982390277	-0.01449585	
1737982390278	-0.015258789	
1737982390279	-0.00869751	
1737982390280	-0.0075531006	
1737982390281	-2.2888184E-4	
1737982390282	0.0038146973	
1737982390283	-0.009994507	
1737982390284	-0.017852783	
1737982390285	-0.018920898	
1737982390286	0.020523071	
1737982390287	0.044555664	
1737982390288	0.0051116943	
1737982390289	0.0019836426	
1737982390290	0.018310547	
1737982390291	0.006942749	
1737982390292	0.01373291	
1737982390293	0.008163452	
1737982390294	0.00541687	
1737982390295	0.014343262	
1737982390296	0.0037384033	
1737982390297	-0.0025939941	
1737982390298	-0.004119873	
1737982390299	0.005645752	
1737982390300	-0.012664795	
1737982390301	-0.03807068	
1737982390302	-0.031967163	
1737982390303	-0.028762817	
1737982390304	-0.023727417	
1737982390305	-0.010757446	
1737982390306	0.00793457	
1737982390307	0.012054443	
1737982390308	0.0023651123	
1737982390309	0.0064849854	
1737982390310	0.009460449	
1737982390311	0.015716553	
1737982390312	0.03440857	
1737982390313	0.04096985	
1737982390314	0.020904541	
1737982390315	0.018692017	
1737982390316	0.008468628	
1737982390317	-0.026168823	
1737982390318	-0.053482056	
1737982390319	-0.055160522	
1737982390320	-0.019836426	
1737982390321	-0.011672974	
1737982390322	0.022659302	
1737982390323	0.11039734	
1737982390324	0.094451904	
1737982390325	-0.003967285	
1737982390326	-0.036087036	
1737982390327	-0.025787354	
1737982390328	-0.046844482	
1737982390329	-0.041809082	
1737982390330	-0.008773804	
1737982390331	0.013122559	
1737982390332	0.02708435	
1737982390333	0.018920898	
1737982390334	-0.0076293945	
1737982390335	-0.03227234	
1737982390336	-0.043640137	
1737982390337	-0.016403198	
1737982390338	-0.0059509277	
1737982390339	-0.025482178	
1737982390340	-0.0063323975	
1737982390341	0.008087158	
1737982390342	0.019607544	
1737982390343	0.045013428	
1737982390344	0.044555664	
1737982390345	0.030899048	
1737982390346	0.014877319	
1737982390347	-0.007171631	
1737982390348	-0.01838684	
1737982390349	-0.028839111	
1737982390350	-0.040893555	
1737982390351	-0.030288696	
1737982390352	-0.006790161	
1737982390353	0.005569458	
1737982390354	0.005645752	
1737982390355	-0.009689331	
1737982390356	-0.005874634	
1737982390357	0.015106201	
1737982390358	0.0031280518	
1737982390359	-0.0035858154	
1737982390360	0.022125244	
1737982390361	0.021820068	
1737982390362	-0.020904541	
1737982390363	-0.020599365	
1737982390364	0.0063323975	
1737982390365	-0.0020599365	
1737982390366	0.017929077	
1737982390367	0.032958984	
1737982390368	0.026473999	
1737982390369	0.025558472	
1737982390370	-0.008239746	
1737982390371	-0.026397705	
1737982390372	-0.013122559	
1737982390373	-0.01625061	
1737982390374	-0.025863647	
1737982390375	-0.02456665	
1737982390376	-0.00579834	
1737982390377	0.0050354004	
1737982390378	0.009765625	
1737982390379	0.008468628	
1737982390380	0.008087158	
1737982390381	0.0146484375	
1737982390382	0.0019073486	
1737982390383	-0.009613037	
1737982390384	-0.018539429	
1737982390385	-0.032196045	
1737982390386	-0.033340454	
1737982390387	-0.01991272	
1737982390388	0.04425049	
1737982390389	0.11306763	
1737982390390	0.07888794	
1737982390391	0.03967285	
1737982390392	0.037002563	
1737982390393	-0.013504028	
1737982390394	-0.04020691	
1737982390395	-0.04447937	
1737982390396	-0.05470276	
1737982390397	-0.06851196	
1737982390398	-0.109558105	
1737982390399	-0.10040283	
1737982390400	-0.018692017	
1737982390401	0.038909912	
1737982390402	0.045700073	
1737982390403	0.029907227	
1737982390404	0.033493042	
1737982390405	0.052947998	
1737982390406	0.045394897	
1737982390407	0.027770996	
1737982390408	0.02357483	
1737982390409	0.04386902	
1737982390410	0.05126953	
1737982390411	0.035247803	
1737982390412	0.01121521	
1737982390413	-9.918213E-4	
1737982390414	-0.0340271	
1737982390415	-0.0693512	
1737982390416	-0.051574707	
1737982390417	-0.03692627	
1737982390418	-0.029754639	
1737982390419	-0.019760132	
1737982390420	-0.009689331	
1737982390421	-0.0037384033	
1737982390422	-0.026016235	
1737982390423	-0.028762817	
1737982390424	-0.008926392	
1737982390425	-0.0035095215	
1737982390426	0.008010864	
1737982390427	0.021133423	
1737982390428	0.026016235	
1737982390429	0.032043457	
1737982390430	0.023803711	
1737982390431	-0.019760132	
1737982390432	-0.051498413	
1737982390433	-0.023117065	
1737982390434	0.019989014	
1737982390435	0.034561157	
1737982390436	0.019302368	
1737982390437	-0.006866455	
1737982390438	0.0029754639	
1737982390439	0.036621094	
1737982390440	0.039978027	
1737982390441	0.017471313	
1737982390442	-0.005264282	
1737982390443	-0.0021362305	
1737982390444	0.004196167	
1737982390445	-0.014343262	
1737982390446	-0.032730103	
1737982390447	-0.019836426	
1737982390448	0.0019073486	
1737982390449	0.013504028	
1737982390450	0.021743774	
1737982390451	0.0063323975	
1737982390452	-0.01586914	
1737982390453	-0.028152466	
1737982390454	-0.006790161	
1737982390455	0.02067566	
1737982390456	0.016860962	
1737982390457	-0.0046539307	
1737982390458	-0.026550293	
1737982390459	-0.026245117	
1737982390460	-0.037765503	
1737982390461	-0.0066375732	
1737982390462	0.026397705	
1737982390463	0.013656616	
1737982390464	0.037078857	
1737982390465	0.054092407	
1737982390466	0.050048828	
1737982390467	-5.340576E-4	
1737982390468	-0.081329346	
1737982390469	-0.117874146	
1737982390470	-0.09994507	
1737982390471	0.045394897	
1737982390472	0.14144897	
1737982390473	0.02670288	
1737982390474	-0.0024414062	
1737982390475	0.031204224	
1737982390476	-0.023422241	
1737982390477	-0.010299683	
1737982390478	-0.016021729	
1737982390479	-0.0365448	
1737982390480	-0.022277832	
1737982390481	-0.03753662	
1737982390482	-0.019378662	
1737982390483	-6.1035156E-4	
1737982390484	0.0021362305	
1737982390485	0.041732788	
1737982390486	0.09391785	
1737982390487	0.058059692	
1737982390488	0.0030517578	
1737982390489	0.026321411	
1737982390490	-6.866455E-4	
1737982390491	-0.07247925	
1737982390492	-0.10620117	
1737982390493	-0.06225586	
1737982390494	0.028686523	
1737982390495	0.03211975	
1737982390496	0.008163452	
1737982390497	0.023269653	
1737982390498	0.021896362	
1737982390499	0.01625061	
1737982390500	-0.002746582	
1737982390501	-0.0059509277	
1737982390502	0.03501892	
1737982390503	0.041732788	
1737982390504	0.011138916	
1737982390505	-0.012969971	
1737982390506	-0.03112793	
1737982390507	-0.021133423	
1737982390508	-0.029907227	
1737982390509	-0.045700073	
1737982390510	-0.015411377	
1737982390511	0.020751953	
1737982390512	0.02418518	
1737982390513	-0.015640259	
1737982390514	-0.046539307	
1737982390515	-0.042037964	
1737982390516	-0.034484863	
1737982390517	0.01373291	
1737982390518	0.056991577	
1737982390519	0.02204895	
1737982390520	0.006713867	
1737982390521	0.063323975	
1737982390522	0.08880615	
1737982390523	0.059890747	
1737982390524	0.02746582	
1737982390525	-0.018615723	
1737982390526	-0.03112793	
1737982390527	-0.041732788	
1737982390528	-0.081329346	
1737982390529	-0.09353638	
1737982390530	-0.07110596	
1737982390531	-0.01739502	
1737982390532	0.027160645	
1737982390533	0.018157959	
1737982390534	0.0019836426	
1737982390535	0.015258789	
1737982390536	0.025253296	
1737982390537	0.016403198	
1737982390538	0.008392334	
1737982390539	0.03692627	
1737982390540	0.05859375	
1737982390541	0.009384155	
1737982390542	-0.022277832	
1737982390543	-0.011367798	
1737982390544	-0.03967285	
1737982390545	-0.02960205	
1737982390546	0.008392334	
1737982390547	0.030059814	
1737982390548	0.07209778	
1737982390549	0.05065918	
1737982390550	-0.02861023	
1737982390551	-0.0667572	
1737982390552	-0.07575989	
1737982390553	-0.04272461	
1737982390554	0.0146484375	
1737982390555	-0.005645752	
1737982390556	-0.029449463	
1737982390557	0.038223267	
1737982390558	0.099868774	
1737982390559	0.1184845	
1737982390560	0.08514404	
1737982390561	-0.0073242188	
1737982390562	-0.066223145	
1737982390563	-0.1007843	
1737982390564	-0.12535095	
1737982390565	-0.0831604	
1737982390566	-0.067977905	
1737982390567	-0.030441284	
1737982390568	0.060424805	
1737982390569	0.08743286	
1737982390570	0.078125	
1737982390571	0.049362183	
1737982390572	0.04776001	
1737982390573	0.032424927	
1737982390574	-0.010681152	
1737982390575	-0.02128601	
1737982390576	-0.053482056	
1737982390577	-0.09162903	
1737982390578	-0.05973816	
1737982390579	0.015411377	
1737982390580	0.0655365	
1737982390581	0.05859375	
1737982390582	0.01701355	
1737982390583	0.038375854	
1737982390584	0.06439209	
1737982390585	-0.035095215	
1737982390586	-0.09979248	
1737982390587	-0.06362915	
1737982390588	-0.07110596	
1737982390589	-0.043640137	
1737982390590	0.0730896	
1737982390591	0.14480591	
1737982390592	0.046157837	
1737982390593	-0.07728577	
1737982390594	-0.07736206	
1737982390595	-0.048980713	
1737982390596	-0.0012969971	
1737982390597	0.048828125	
1737982390598	0.0022888184	
1737982390599	-0.116119385	
1737982390600	-0.12008667	
1737982390601	-0.008087158	
1737982390602	0.092926025	
1737982390603	0.2053833	
1737982390604	0.21965027	
1737982390605	0.14198303	
1737982390606	0.07118225	
1737982390607	-0.04081726	
1737982390608	-0.10070801	
1737982390609	-0.09162903	
1737982390610	-0.121154785	
1737982390611	-0.10108948	
1737982390612	-0.0440979	
1737982390613	-0.032424927	
1737982390614	-0.005874634	
1737982390615	0.035705566	
1737982390616	0.113601685	
1737982390617	0.17448425	
1737982390618	0.1171875	
1737982390619	-0.025558472	
1737982390620	-0.18829346	
1737982390621	-0.2770996	
1737982390622	-0.2658844	
1737982390623	-0.22605896	
1737982390624	-0.17967224	
1737982390625	-0.02708435	
1737982390626	0.1322174	
1737982390627	0.13824463	
1737982390628	0.18493652	
1737982390629	0.24986267	
1737982390630	0.26138306	
1737982390631	0.2256012	
1737982390632	0.10383606	
1737982390633	0.034484863	
1737982390634	0.01121521	
1737982390635	-0.0047302246	
1737982390636	-0.046920776	
1737982390637	-0.08552551	
1737982390638	-0.045166016	
1737982390639	-0.049591064	
1737982390640	-0.07041931	
1737982390641	-0.07141113	
1737982390642	-0.083847046	
1737982390643	-0.07369995	
1737982390644	-0.043182373	
1737982390645	-0.013809204	
1737982390646	-0.021972656	
1737982390647	-0.055160522	
1737982390648	-0.09162903	
1737982390649	-0.0831604	
1737982390650	-0.029144287	
1737982390651	0.063705444	
1737982390652	0.14541626	
1737982390653	0.09925842	
1737982390654	0.06347656	
1737982390655	0.030517578	
1737982390656	-0.018920898	
1737982390657	0.017166138	
1737982390658	-0.0030517578	
1737982390659	-0.03227234	
1737982390660	-0.013809204	
1737982390661	-0.015563965	
1737982390662	0.019683838	
1737982390663	0.05760193	
1737982390664	0.02029419	
1737982390665	-0.021514893	
1737982390666	-0.028076172	
1737982390667	-0.060272217	
1737982390668	-0.062026978	
1737982390669	0.007247925	
1737982390670	0.047836304	
1737982390671	0.018005371	
1737982390672	-0.029067993	
1737982390673	-0.029830933	
1737982390674	0.011062622	
1737982390675	0.023040771	
1737982390676	0.0060272217	
1737982390677	0.0016021729	
1737982390678	-6.1035156E-4	
1737982390679	0.010604858	
1737982390680	0.014190674	
1737982390681	0.010147095	
1737982390682	0.030593872	
1737982390683	0.032348633	
1737982390684	-0.0045776367	
1737982390685	-0.0104522705	
1737982390686	0.00831604	
1737982390687	-0.0051879883	
1737982390688	-0.024642944	
1737982390689	-0.029144287	
1737982390690	-0.01586914	
1737982390691	0.010681152	
1737982390692	0.016860962	
1737982390693	0.02204895	
1737982390694	0.010070801	
1737982390695	-0.030822754	
1737982390696	-0.0856781	
1737982390697	-0.11451721	
1737982390698	-0.059661865	
1737982390699	0.060424805	
1737982390700	0.12428284	
1737982390701	0.06072998	
1737982390702	0.0025177002	
1737982390703	0.0035095215	
1737982390704	-0.006713867	
1737982390705	-0.0048065186	
1737982390706	-0.008773804	
1737982390707	-0.0074005127	
1737982390708	0.0035095215	
1737982390709	0.011520386	
1737982390710	0.013961792	
1737982390711	-1.5258789E-4	
1737982390712	-0.004501343	
1737982390713	0.0025177002	
1737982390714	0.0011444092	
1737982390715	-9.1552734E-4	
1737982390716	-0.0011444092	
1737982390717	-0.005569458	
1737982390718	-0.0033569336	
1737982390719	-0.0077819824	
1737982390720	-0.008850098	
1737982390721	-0.0047302246	
1737982390722	-0.013427734	
1737982390723	-0.0060272217	
1737982390724	-0.004196167	
1737982390725	-0.0076293945	
1737982390726	2.2888184E-4	
1737982390727	0.002746582	
1737982390728	-0.004425049	
1737982390729	-0.011444092	
1737982390730	-3.8146973E-4	
1737982390731	-0.00579834	
1737982390732	-0.018539429	
1737982390733	-0.011367798	
1737982390734	-0.005645752	
1737982390735	-0.0019836426	
1737982390736	0.0047302246	
1737982390737	0.019073486	
1737982390738	0.025100708	
1737982390739	0.025177002	
1737982390740	0.02319336	
1737982390741	0.01777649	
1737982390742	-0.0045776367	
1737982390743	-0.007019043	
1737982390744	0.0077819824	
1737982390745	-0.0048828125	
1737982390746	-0.007171631	
1737982390747	-6.866455E-4	
1737982390748	0.008239746	
1737982390749	0.005722046	
1737982390750	-0.010223389	
1737982390751	-0.012283325	
1737982390752	0.0016021729	
1737982390753	0.008926392	
1737982390754	-0.012969971	
1737982390755	-0.025253296	
1737982390756	-0.015182495	
1737982390757	-0.013656616	
1737982390758	-0.01625061	
1737982390759	-0.011978149	
1737982390760	-0.00289917	
1737982390761	-0.009155273	
1737982390762	0.0063323975	
1737982390763	0.0019836426	
1737982390764	-0.00541687	
1737982390765	0.015182495	
1737982390766	0.02204895	
1737982390767	0.0037384033	
1737982390768	-0.0076293945	
1737982390769	0.0048828125	
1737982390770	-0.0016021729	
1737982390771	-0.0015258789	
1737982390772	0.024642944	
1737982390773	0.05065918	
1737982390774	0.051727295	
1737982390775	0.02784729	
1737982390776	-0.00289917	
1737982390777	-0.005722046	
1737982390778	0.005340576	
1737982390779	0.012893677	
1737982390780	0.0035858154	
1737982390781	-0.0340271	
1737982390782	-0.02670288	
1737982390783	-0.005340576	
1737982390784	-0.016708374	
1737982390785	-0.016555786	
1737982390786	-0.010299683	
1737982390787	-0.02243042	
1737982390788	-0.04638672	
1737982390789	-0.04081726	
1737982390790	-0.032043457	
1737982390791	-0.01914978	
1737982390792	-0.021362305	
1737982390793	-0.031433105	
1737982390794	-0.00831604	
1737982390795	0.0060272217	
1737982390796	0.030517578	
1737982390797	0.08392334	
1737982390798	0.067214966	
1737982390799	0.015487671	
1737982390800	-0.0077819824	
1737982390801	-0.019989014	
1737982390802	-0.029907227	
1737982390803	-0.038909912	
1737982390804	-0.02494812	
1737982390805	-0.012283325	
1737982390806	-0.017318726	
1737982390807	0.0034332275	
1737982390808	0.03036499	
1737982390809	0.039138794	
1737982390810	0.038528442	
1737982390811	0.04386902	
1737982390812	0.047302246	
1737982390813	0.019683838	
1737982390814	0.009918213	
1737982390815	0.020370483	
1737982390816	-0.0032806396	
1737982390817	-0.009765625	
1737982390818	-0.002670288	
1737982390819	0.027008057	
1737982390820	0.048675537	
1737982390821	-9.1552734E-4	
1737982390822	-0.03517151	
1737982390823	-0.045318604	
1737982390824	-0.05859375	
1737982390825	-0.032958984	
1737982390826	-0.025558472	
1737982390827	-0.0390625	
1737982390828	-0.043182373	
1737982390829	-0.032806396	
1737982390830	0.0066375732	
1737982390831	0.02204895	
1737982390832	-0.033111572	
1737982390833	-0.08232117	
1737982390834	-0.06500244	
1737982390835	-0.01586914	
1737982390836	0.05470276	
1737982390837	0.098724365	
1737982390838	0.049819946	
1737982390839	-0.0012969971	
1737982390840	0.013885498	
1737982390841	0.034713745	
1737982390842	0.04508972	
1737982390843	0.050430298	
1737982390844	0.03555298	
1737982390845	0.009841919	
1737982390846	0.0038146973	
1737982390847	0.007858276	
1737982390848	-0.005264282	
1737982390849	-0.020446777	
1737982390850	-0.025787354	
1737982390851	-0.019989014	
1737982390852	-0.016860962	
1737982390853	-0.016784668	
1737982390854	-0.0030517578	
1737982390855	-0.016174316	
1737982390856	-0.0289917	
1737982390857	-0.010986328	
1737982390858	-0.0062561035	
1737982390859	0.0	
1737982390860	0.004272461	
1737982390861	-0.0034332275	
1737982390862	0.005874634	
1737982390863	-0.0036621094	
1737982390864	-0.023498535	
1737982390865	-0.02204895	
1737982390866	-0.010986328	
1737982390867	-0.019073486	
1737982390868	-0.050735474	
1737982390869	-0.040740967	
1737982390870	-0.012969971	
1737982390871	-0.00579834	
1737982390872	0.026931763	
1737982390873	0.08842468	
1737982390874	0.14572144	
1737982390875	0.1612091	
1737982390876	0.12023926	
1737982390877	0.08468628	
1737982390878	0.041427612	
1737982390879	-0.014419556	
1737982390880	-0.029449463	
1737982390881	-0.08369446	
1737982390882	-0.13084412	
1737982390883	-0.1158905	
1737982390884	-0.11123657	
1737982390885	-0.08415222	
1737982390886	-0.059890747	
1737982390887	-0.04219055	
1737982390888	-0.021438599	
1737982390889	-0.002822876	
1737982390890	0.038223267	
1737982390891	0.05859375	
1737982390892	0.054855347	
1737982390893	0.026855469	
1737982390894	0.012588501	
1737982390895	0.016403198	
1737982390896	0.014266968	
1737982390897	0.029373169	
1737982390898	0.035324097	
1737982390899	0.030593872	
1737982390900	0.013198853	
1737982390901	-0.007858276	
1737982390902	-0.017700195	
1737982390903	-0.03189087	
1737982390904	-0.041122437	
1737982390905	-0.05744934	
1737982390906	-0.074157715	
1737982390907	-0.07827759	
1737982390908	-0.059814453	
1737982390909	-0.018234253	
1737982390910	0.010070801	
1737982390911	0.031433105	
1737982390912	0.03616333	
1737982390913	0.015335083	
1737982390914	-0.014572144	
1737982390915	-0.0019073486	
1737982390916	0.08003235	
1737982390917	0.12435913	
1737982390918	0.10948181	
1737982390919	0.11352539	
1737982390920	0.09460449	
1737982390921	0.046844482	
1737982390922	0.039215088	
1737982390923	0.01586914	
1737982390924	-0.04547119	
1737982390925	-0.08644104	
1737982390926	-0.082092285	
1737982390927	-0.068359375	
1737982390928	-0.089263916	
1737982390929	-0.08453369	
1737982390930	-0.046844482	
1737982390931	-0.032424927	
1737982390932	-0.0038909912	
1737982390933	0.04310608	
1737982390934	0.05493164	
1737982390935	0.015945435	
1737982390936	-0.002746582	
1737982390937	0.0038909912	
1737982390938	-0.042800903	
1737982390939	-0.06362915	
1737982390940	-0.020217896	
1737982390941	-0.01777649	
1737982390942	-0.0132751465	
1737982390943	0.018997192	
1737982390944	0.002746582	
1737982390945	-0.00793457	
1737982390946	0.03364563	
1737982390947	0.048294067	
1737982390948	0.0066375732	
1737982390949	-0.012969971	
1737982390950	0.0016784668	
1737982390951	0.012512207	
1737982390952	0.023040771	
1737982390953	0.033416748	
1737982390954	0.03036499	
1737982390955	0.009613037	
1737982390956	-5.340576E-4	
1737982390957	0.0046539307	
1737982390958	-0.007095337	
1737982390959	-0.013427734	
1737982390960	0.0061035156	
1737982390961	0.013961792	
1737982390962	0.004119873	
1737982390963	0.004043579	
1737982390964	0.0074768066	
1737982390965	-4.5776367E-4	
1737982390966	-0.0048828125	
1737982390967	-0.007095337	
1737982390968	-0.008392334	
1737982390969	-0.017089844	
1737982390970	-0.017242432	
1737982390971	-0.005264282	
1737982390972	3.8146973E-4	
1737982390973	-0.012817383	
1737982390974	-0.049972534	
1737982390975	-0.058059692	
1737982390976	-0.018157959	
1737982390977	0.016021729	
1737982390978	0.031204224	
1737982390979	0.002822876	
1737982390980	-0.008621216	
1737982390981	0.040359497	
1737982390982	0.0730896	
1737982390983	0.06462097	
1737982390984	0.021133423	
1737982390985	-0.0024414062	
1737982390986	3.0517578E-4	
1737982390987	-0.012054443	
1737982390988	-0.016098022	
1737982390989	-0.02067566	
1737982390990	-0.022888184	
1737982390991	-0.005569458	
1737982390992	-0.0030517578	
1737982390993	-0.017700195	
1737982390994	-0.027618408	
1737982390995	-0.024719238	
1737982390996	-0.006942749	
1737982390997	-0.011138916	
1737982390998	-0.02784729	
1737982390999	-0.016784668	
1737982391000	-7.6293945E-5	
1737982391001	-0.0023651123	
1737982391002	0.0024414062	
1737982391003	0.04737854	
1737982391004	0.074920654	
1737982391005	0.029067993	
1737982391006	0.0012207031	
1737982391007	-0.00289917	
1737982391008	-0.01411438	
1737982391009	0.007019043	
1737982391010	0.0011444092	
1737982391011	-0.014572144	
1737982391012	-0.018310547	
1737982391013	-0.04989624	
1737982391014	-0.08338928	
1737982391015	-0.07034302	
1737982391016	0.0023651123	
1737982391017	0.038223267	
1737982391018	0.035476685	
1737982391019	0.04737854	
1737982391020	0.06668091	
1737982391021	0.09803772	
1737982391022	0.08842468	
1737982391023	0.03036499	
1737982391024	-0.026626587	
1737982391025	-0.042495728	
1737982391026	-0.029830933	
1737982391027	-0.027618408	
1737982391028	-0.016860962	
1737982391029	-0.002746582	
1737982391030	-0.0019836426	
1737982391031	-0.010986328	
1737982391032	-0.037384033	
1737982391033	-0.041732788	
1737982391034	-0.017623901	
1737982391035	-0.019760132	
1737982391036	-0.023803711	
1737982391037	-0.01953125	
1737982391038	-0.025634766	
1737982391039	-0.0146484375	
1737982391040	-3.8146973E-4	
1737982391041	0.0090789795	
1737982391042	0.0119018555	
1737982391043	0.0061798096	
1737982391044	0.014572144	
1737982391045	0.024490356	
1737982391046	0.022506714	
1737982391047	0.020599365	
1737982391048	0.02319336	
1737982391049	0.021362305	
1737982391050	0.008163452	
1737982391051	-0.010757446	
1737982391052	-0.015563965	
1737982391053	-0.017089844	
1737982391054	-0.012054443	
1737982391055	0.010681152	
1737982391056	0.017318726	
1737982391057	0.016174316	
1737982391058	0.030059814	
1737982391059	0.032577515	
1737982391060	0.027770996	
1737982391061	0.020217896	
1737982391062	-6.866455E-4	
1737982391063	-0.019073486	
1737982391064	-0.032577515	
1737982391065	-0.040130615	
1737982391066	-0.030212402	
1737982391067	-0.014266968	
1737982391068	-0.007247925	
1737982391069	-0.0035858154	
1737982391070	0.004043579	
1737982391071	0.0074005127	
1737982391072	6.866455E-4	
1737982391073	-0.012817383	
1737982391074	-0.021514893	
1737982391075	-0.009307861	
1737982391076	0.022201538	
1737982391077	0.04196167	
1737982391078	0.023040771	
1737982391079	-5.340576E-4	
1737982391080	-0.0062561035	
1737982391081	-0.006866455	
1737982391082	-0.0090789795	
1737982391083	-0.025634766	
1737982391084	-0.018310547	
1737982391085	6.1035156E-4	
1737982391086	0.013122559	
1737982391087	0.039978027	
1737982391088	0.0045776367	
1737982391089	-0.04486084	
1737982391090	-0.028686523	
1737982391091	-0.012893677	
1737982391092	0.014190674	
1737982391093	0.020980835	
1737982391094	-0.033721924	
1737982391095	-0.058746338	
1737982391096	-0.011367798	
1737982391097	0.05104065	
1737982391098	0.054016113	
1737982391099	0.019760132	
1737982391100	-0.017623901	
1737982391101	-0.029525757	
1737982391102	0.004425049	
1737982391103	-0.017089844	
1737982391104	-0.028686523	
1737982391105	0.020904541	
1737982391106	0.051574707	
1737982391107	0.0680542	
1737982391108	0.024414062	
1737982391109	-0.020980835	
1737982391110	-0.039367676	
1737982391111	-0.056991577	
1737982391112	-0.05203247	
1737982391113	-0.06278992	
1737982391114	-0.064697266	
1737982391115	-0.032424927	
1737982391116	0.044937134	
1737982391117	0.083999634	
1737982391118	0.03829956	
1737982391119	0.043945312	
1737982391120	0.08003235	
1737982391121	0.12428284	
1737982391122	0.13565063	
1737982391123	0.030212402	
1737982391124	-0.035705566	
1737982391125	-0.040283203	
1737982391126	-0.032958984	
1737982391127	0.03074646	
1737982391128	-0.0019073486	
1737982391129	-0.073394775	
1737982391130	-0.03227234	
1737982391131	0.019302368	
1737982391132	0.019836426	
1737982391133	0.0077056885	
1737982391134	0.016174316	
1737982391135	-0.028152466	
1737982391136	-0.12313843	
1737982391137	-0.17974854	
1737982391138	-0.18333435	
1737982391139	-0.10635376	
1737982391140	-0.020065308	
1737982391141	0.0022125244	
1737982391142	0.045547485	
1737982391143	0.08979797	
1737982391144	0.09307861	
1737982391145	0.0655365	
1737982391146	-0.032577515	
1737982391147	-0.092544556	
1737982391148	-0.08842468	
1737982391149	-0.06713867	
1737982391150	0.019302368	
1737982391151	0.07614136	
1737982391152	0.07980347	
1737982391153	0.112075806	
1737982391154	0.18081665	
1737982391155	0.209198	
1737982391156	0.17333984	
1737982391157	0.12214661	
1737982391158	0.09132385	
1737982391159	0.02029419	
1737982391160	-0.07766724	
1737982391161	-0.0806427	
1737982391162	-0.06111145	
1737982391163	-0.06668091	
1737982391164	-0.07789612	
1737982391165	-0.045928955	
1737982391166	0.06591797	
1737982391167	0.073776245	
1737982391168	-0.09101868	
1737982391169	-0.31822205	
1737982391170	-0.4284668	
1737982391171	-0.32356262	
1737982391172	-0.20629883	
1737982391173	-0.0743103	
1737982391174	0.1423645	
1737982391175	0.20195007	
1737982391176	0.18928528	
1737982391177	0.2155304	
1737982391178	0.1361084	
1737982391179	0.091171265	
1737982391180	0.0869751	
1737982391181	0.07034302	
1737982391182	0.045318604	
1737982391183	-0.008163452	
1737982391184	-0.02670288	
1737982391185	-0.039596558	
1737982391186	-0.012893677	
1737982391187	-0.005874634	
1737982391188	-0.06530762	
1737982391189	-0.068740845	
1737982391190	-0.037612915	
1737982391191	0.009536743	
1737982391192	0.054244995	
1737982391193	0.0844574	
1737982391194	0.08987427	
1737982391195	0.04776001	
1737982391196	0.02067566	
1737982391197	-0.024871826	
1737982391198	-0.079422	
1737982391199	-0.107803345	
1737982391200	-0.0566864	
1737982391201	0.029144287	
1737982391202	-0.014038086	
1737982391203	-0.064086914	
1737982391204	-0.024337769	
1737982391205	0.004272461	
1737982391206	0.06980896	
1737982391207	0.18829346	
1737982391208	0.1789856	
1737982391209	0.09498596	
1737982391210	0.07713318	
1737982391211	0.046463013	
1737982391212	0.0049591064	
1737982391213	-0.011062622	
1737982391214	-0.07621765	
1737982391215	-0.13328552	
1737982391216	-0.13381958	
1737982391217	-0.1538086	
1737982391218	-0.19218445	
1737982391219	-0.18287659	
1737982391220	-0.109939575	
1737982391221	-0.035476685	
1737982391222	0.025177002	
1737982391223	0.07637024	
1737982391224	0.06523132	
1737982391225	0.016174316	
1737982391226	-0.016937256	
1737982391227	-0.03425598	
1737982391228	-0.0012207031	
1737982391229	0.052871704	
1737982391230	0.10986328	
1737982391231	0.18173218	
1737982391232	0.17471313	
1737982391233	0.117263794	
1737982391234	0.107040405	
1737982391235	0.10383606	
1737982391236	0.084609985	
1737982391237	0.054855347	
1737982391238	0.01121521	
1737982391239	-0.052490234	
1737982391240	-0.103759766	
1737982391241	-0.13694763	
1737982391242	-0.16601562	
1737982391243	-0.17608643	
1737982391244	-0.18157959	
1737982391245	-0.17532349	
1737982391246	-0.14091492	
1737982391247	-0.10383606	
1737982391248	-0.06782532	
1737982391249	-0.047683716	
1737982391250	-0.017166138	
1737982391251	0.01838684	
1737982391252	0.05218506	
1737982391253	0.08628845	
1737982391254	0.10612488	
1737982391255	0.13290405	
1737982391256	0.13824463	
1737982391257	0.097351074	
1737982391258	0.044631958	
1737982391259	0.030593872	
1737982391260	0.050125122	
1737982391261	0.04676819	
1737982391262	0.06599426	
1737982391263	0.07659912	
1737982391264	0.08491516	
1737982391265	0.11734009	
1737982391266	0.14976501	
1737982391267	0.08506775	
1737982391268	-0.028457642	
1737982391269	-0.05630493	
1737982391270	-0.042648315	
1737982391271	-0.045547485	
1737982391272	-0.055999756	
1737982391273	-0.061798096	
1737982391274	-0.06729126	
1737982391275	-0.056228638	
1737982391276	-0.02784729	
1737982391277	-6.1035156E-4	
1737982391278	-0.02998352	
1737982391279	-0.07423401	
1737982391280	-0.094070435	
1737982391281	-0.09208679	
1737982391282	-0.063323975	
1737982391283	-0.04508972	
1737982391284	-0.034942627	
1737982391285	-0.019226074	
1737982391286	-0.015182495	
1737982391287	0.0050354004	
1737982391288	0.014953613	
1737982391289	0.0060272217	
1737982391290	0.009841919	
1737982391291	0.004348755	
1737982391292	-0.0022125244	
1737982391293	-0.0048828125	
1737982391294	-0.01701355	
1737982391295	-0.017318726	
1737982391296	-0.02494812	
1737982391297	-0.027236938	
1737982391298	-0.016555786	
1737982391299	-0.015411377	
1737982391300	-0.009613037	
1737982391301	-0.004272461	
1737982391302	0.0032806396	
1737982391303	0.039215088	
1737982391304	0.08277893	
1737982391305	0.082855225	
1737982391306	0.0045776367	
1737982391307	-0.045394897	
1737982391308	-0.009536743	
1737982391309	0.01991272	
1737982391310	0.03479004	
1737982391311	0.04524231	
1737982391312	0.06278992	
1737982391313	0.08308411	
1737982391314	0.10871887	
1737982391315	0.12664795	
1737982391316	0.06500244	
1737982391317	-0.032806396	
1737982391318	-0.08354187	
1737982391319	-0.07385254	
1737982391320	-0.053482056	
1737982391321	-0.030517578	
1737982391322	-0.004119873	
1737982391323	0.027618408	
1737982391324	0.04547119	
1737982391325	0.031433105	
1737982391326	0.0077056885	
1737982391327	-0.015716553	
1737982391328	-0.017242432	
1737982391329	-0.015335083	
1737982391330	-0.021820068	
1737982391331	-0.03173828	
1737982391332	-0.057296753	
1737982391333	0.027236938	
1737982391334	0.09162903	
1737982391335	-0.020370483	
1737982391336	-0.0894928	
1737982391337	-0.09063721	
1737982391338	-0.056991577	
1737982391339	0.0541687	
1737982391340	0.03189087	
1737982391341	-0.063934326	
1737982391342	-0.022659302	
1737982391343	-0.004501343	
1737982391344	-0.027236938	
1737982391345	-0.029220581	
1737982391346	-0.028305054	
1737982391347	-0.015487671	
1737982391348	-0.028305054	
1737982391349	-0.0289917	
1737982391350	-0.023727417	
1737982391351	-0.0045776367	
1737982391352	0.02281189	
1737982391353	0.054244995	
1737982391354	0.089035034	
1737982391355	0.06690979	
1737982391356	0.010986328	
1737982391357	0.008239746	
1737982391358	0.03135681	
1737982391359	0.02861023	
1737982391360	0.032577515	
1737982391361	0.039367676	
1737982391362	0.0051116943	
1737982391363	-0.00831604	
1737982391364	-0.019683838	
1737982391365	-0.04623413	
1737982391366	-0.01876831	
1737982391367	-0.0023651123	
1737982391368	-0.010528564	
1737982391369	0.002822876	
1737982391370	0.020446777	
1737982391371	-0.016937256	
1737982391372	-0.08338928	
1737982391373	-0.08369446	
1737982391374	-0.09109497	
1737982391375	-0.07926941	
1737982391376	-0.0440979	
1737982391377	-0.049972534	
1737982391378	-0.01083374	
1737982391379	0.026016235	
1737982391380	0.060577393	
1737982391381	0.08666992	
1737982391382	0.06210327	
1737982391383	0.02609253	
1737982391384	0.022583008	
1737982391385	0.050201416	
1737982391386	0.044784546	
1737982391387	0.04875183	
1737982391388	0.054244995	
1737982391389	0.05317688	
1737982391390	0.06690979	
1737982391391	0.05760193	
1737982391392	0.047683716	
1737982391393	0.005874634	
1737982391394	-0.06309509	
1737982391395	-0.13153076	
1737982391396	-0.13237	
1737982391397	-0.033721924	
1737982391398	0.015258789	
1737982391399	-0.0048065186	
1737982391400	0.078811646	
1737982391401	0.18615723	
1737982391402	0.08628845	
1737982391403	-0.045928955	
1737982391404	-0.09933472	
1737982391405	-0.1273346	
1737982391406	-0.05493164	
1737982391407	-0.06889343	
1737982391408	-0.11306763	
1737982391409	0.03074646	
1737982391410	0.15136719	
1737982391411	0.098342896	
1737982391412	-0.012893677	
1737982391413	-0.10269165	
1737982391414	-0.07537842	
1737982391415	1.5258789E-4	
1737982391416	-0.02319336	
1737982391417	-0.059509277	
1737982391418	-0.06317139	
1737982391419	-0.087127686	
1737982391420	-0.12840271	
1737982391421	-0.08895874	
1737982391422	0.013504028	
1737982391423	0.05355835	
1737982391424	0.09132385	
1737982391425	0.08491516	
1737982391426	0.1134491	
1737982391427	0.1360321	
1737982391428	0.012588501	
1737982391429	0.076828	
1737982391430	0.108566284	
1737982391431	-0.034713745	
1737982391432	-0.07041931	
1737982391433	-0.0020599365	
1737982391434	0.107803345	
1737982391435	0.098724365	
1737982391436	0.012741089	
1737982391437	-0.0048828125	
1737982391438	-0.025482178	
1737982391439	-0.039749146	
1737982391440	-0.03288269	
1737982391441	-0.025558472	
1737982391442	-0.05744934	
1737982391443	-0.09475708	
1737982391444	-0.040130615	
1737982391445	-0.047912598	
1737982391446	-0.07461548	
1737982391447	-0.017089844	
1737982391448	9.918213E-4	
1737982391449	0.013961792	
1737982391450	-0.010528564	
1737982391451	-0.07423401	
1737982391452	-0.032730103	
1737982391453	-0.02319336	
1737982391454	-0.012969971	
1737982391455	0.047683716	
1737982391456	0.07141113	
1737982391457	0.11428833	
1737982391458	0.11604309	
1737982391459	0.05744934	
1737982391460	8.392334E-4	
1737982391461	-0.016784668	
1737982391462	-0.0016784668	
1737982391463	-0.024414062	
1737982391464	-0.0066375732	
1737982391465	-0.013809204	
1737982391466	-0.0075531006	
1737982391467	0.028686523	
1737982391468	0.02670288	
1737982391469	0.06729126	
1737982391470	0.061950684	
1737982391471	-0.0061035156	
1737982391472	-0.0970459	
1737982391473	-0.17456055	
1737982391474	-0.10574341	
1737982391475	-0.04508972	
1737982391476	-0.09124756	
1737982391477	-5.340576E-4	
1737982391478	0.15487671	
1737982391479	0.08277893	
1737982391480	-0.0016784668	
1737982391481	0.030593872	
1737982391482	-0.009307861	
1737982391483	-0.037994385	
1737982391484	-0.08453369	
1737982391485	-0.08369446	
1737982391486	6.1035156E-4	
1737982391487	0.002670288	
1737982391488	0.018539429	
1737982391489	0.11413574	
1737982391490	0.21179199	
1737982391491	0.10429382	
1737982391492	-0.06378174	
1737982391493	-0.07583618	
1737982391494	-0.11100769	
1737982391495	-0.08026123	
1737982391496	-0.027618408	
1737982391497	-0.02204895	
1737982391498	0.009384155	
1737982391499	-0.025558472	
1737982391500	-0.019454956	
1737982391501	0.017318726	
1737982391502	0.033798218	
1737982391503	0.060424805	
1737982391504	0.031585693	
1737982391505	0.016784668	
1737982391506	0.0049591064	
1737982391507	-0.025482178	
1737982391508	-0.033950806	
1737982391509	-0.013122559	
1737982391510	0.044403076	
1737982391511	0.12023926	
1737982391512	0.157547	
1737982391513	0.056381226	
1737982391514	-0.06690979	
1737982391515	-0.10169983	
1737982391516	-0.13130188	
1737982391517	-0.07537842	
1737982391518	-0.0010681152	
1737982391519	0.018081665	
1737982391520	0.08148193	
1737982391521	0.053863525	
1737982391522	-0.021514893	
1737982391523	-0.10864258	
1737982391524	-0.14160156	
1737982391525	-0.074539185	
1737982391526	-0.06858826	
1737982391527	-0.017089844	
1737982391528	0.070877075	
1737982391529	0.083999634	
1737982391530	0.06538391	
1737982391531	0.035247803	
1737982391532	-0.004501343	
1737982391533	-0.027236938	
1737982391534	0.009384155	
1737982391535	0.023040771	
1737982391536	0.027923584	
1737982391537	0.061340332	
1737982391538	0.011520386	
1737982391539	-0.027008057	
1737982391540	-0.0033569336	
1737982391541	-0.031967163	
1737982391542	-0.035095215	
1737982391543	0.030136108	
1737982391544	0.1134491	
1737982391545	0.12878418	
1737982391546	-0.011291504	
1737982391547	-0.035629272	
1737982391548	0.03479004	
1737982391549	-0.038223267	
1737982391550	-0.058670044	
1737982391551	-0.02784729	
1737982391552	-0.017089844	
1737982391553	-0.029373169	
1737982391554	-0.055923462	
1737982391555	-0.042800903	
1737982391556	-0.042114258	
1737982391557	-0.034484863	
1737982391558	-0.01777649	
1737982391559	0.029907227	
1737982391560	0.055236816	
1737982391561	-0.043945312	
1737982391562	-0.07316589	
1737982391563	0.017166138	
1737982391564	0.060043335	
1737982391565	0.0541687	
1737982391566	0.036849976	
1737982391567	0.038375854	
1737982391568	0.019226074	
1737982391569	-0.013427734	
1737982391570	-0.03555298	
1737982391571	-0.054855347	
1737982391572	0.026931763	
1737982391573	0.06523132	
1737982391574	0.04508972	
1737982391575	0.04119873	
1737982391576	-0.0075531006	
1737982391577	0.0062561035	
1737982391578	0.0090789795	
1737982391579	-0.0566864	
1737982391580	-0.08720398	
1737982391581	-0.057373047	
1737982391582	-0.016021729	
1737982391583	-0.04234314	
1737982391584	-0.08842468	
1737982391585	-0.08659363	
1737982391586	-0.051651	
1737982391587	0.05508423	
1737982391588	0.18966675	
1737982391589	0.17539978	
1737982391590	0.04119873	
1737982391591	-0.071258545	
1737982391592	-0.15808105	
1737982391593	-0.1298523	
1737982391594	-0.049209595	
1737982391595	-0.0010681152	
1737982391596	0.084991455	
1737982391597	0.09651184	
1737982391598	0.048217773	
1737982391599	0.031967163	
1737982391600	-0.012588501	
1737982391601	-0.020751953	
1737982391602	-0.007095337	
1737982391603	-0.025405884	
1737982391604	-0.017471313	
1737982391605	-0.0030517578	
1737982391606	0.06309509	
1737982391607	0.081710815	
1737982391608	0.033721924	
1737982391609	0.02532959	
1737982391610	-0.0032806396	
1737982391611	0.009841919	
1737982391612	-6.866455E-4	
1737982391613	-0.018615723	
1737982391614	0.028686523	
1737982391615	0.067214966	
1737982391616	0.05744934	
1737982391617	-0.03768921	
1737982391618	-0.084609985	
1737982391619	-0.06713867	
1737982391620	-0.09094238	
1737982391621	-0.050048828	
1737982391622	0.02746582	
1737982391623	0.0061035156	
1737982391624	-0.07606506	
1737982391625	-0.0819397	
1737982391626	-0.03555298	
1737982391627	0.011444092	
1737982391628	0.04234314	
1737982391629	0.01914978	
1737982391630	-0.01373291	
1737982391631	-0.01739502	
1737982391632	-0.0050354004	
1737982391633	-0.0019073486	
1737982391634	-3.0517578E-4	
1737982391635	0.022659302	
1737982391636	0.059661865	
1737982391637	0.10482788	
1737982391638	0.104599	
1737982391639	0.052337646	
1737982391640	-0.0023651123	
1737982391641	-0.052947998	
1737982391642	-0.027618408	
1737982391643	0.022735596	
1737982391644	0.080566406	
1737982391645	0.08430481	
1737982391646	-0.03768921	
1737982391647	-0.08911133	
1737982391648	-0.06462097	
1737982391649	-0.04234314	
1737982391650	-0.01121521	
1737982391651	-0.02281189	
1737982391652	-0.045318604	
1737982391653	-0.010757446	
1737982391654	0.017929077	
1737982391655	0.0029754639	
1737982391656	0.03135681	
1737982391657	0.040664673	
1737982391658	-0.03807068	
1737982391659	-0.06645203	
1737982391660	-0.04425049	
1737982391661	-0.032577515	
1737982391662	-0.015029907	
1737982391663	-0.08430481	
1737982391664	-0.14266968	
1737982391665	-0.1096344	
1737982391666	0.018234253	
1737982391667	0.21949768	
1737982391668	0.33203125	
1737982391669	0.2633667	
1737982391670	0.090026855	
1737982391671	-0.09864807	
1737982391672	-0.22750854	
1737982391673	-0.21781921	
1737982391674	-0.16143799	
1737982391675	-0.0667572	
1737982391676	0.092544556	
1737982391677	0.1285553	
1737982391678	0.08232117	
1737982391679	0.057678223	
1737982391680	0.014724731	
1737982391681	-0.01777649	
1737982391682	-0.03265381	
1737982391683	-0.056915283	
1737982391684	-0.05180359	
1737982391685	-0.066223145	
1737982391686	-0.02357483	
1737982391687	0.07362366	
1737982391688	0.11009216	
1737982391689	0.12756348	
1737982391690	0.09414673	
1737982391691	0.021438599	
1737982391692	-0.016860962	
1737982391693	-0.010147095	
1737982391694	-0.05279541	
1737982391695	-0.14434814	
1737982391696	-0.102767944	
1737982391697	-0.03982544	
1737982391698	-0.06568909	
1737982391699	-0.047683716	
1737982391700	-0.009384155	
1737982391701	0.018615723	
1737982391702	0.043411255	
1737982391703	0.060043335	
1737982391704	0.06378174	
1737982391705	0.008468628	
1737982391706	-0.06454468	
1737982391707	-0.015487671	
1737982391708	0.04600525	
1737982391709	0.056610107	
1737982391710	0.15907288	
1737982391711	0.14503479	
1737982391712	-0.008087158	
1737982391713	-0.05744934	
1737982391714	-0.077056885	
1737982391715	-0.11802673	
1737982391716	-0.052871704	
1737982391717	0.019683838	
1737982391718	-0.009765625	
1737982391719	0.008850098	
1737982391720	-9.1552734E-4	
1737982391721	-0.045700073	
1737982391722	-5.340576E-4	
1737982391723	0.0029754639	
1737982391724	-0.0029754639	
1737982391725	-0.021133423	
1737982391726	-0.036315918	
1737982391727	-0.01838684	
1737982391728	-0.022354126	
1737982391729	-0.018463135	
1737982391730	-0.010681152	
1737982391731	0.014038086	
1737982391732	0.09239197	
1737982391733	0.106277466	
1737982391734	0.063934326	
1737982391735	0.03036499	
1737982391736	-0.0074768066	
1737982391737	-0.014801025	
1737982391738	-0.013046265	
1737982391739	-0.061798096	
1737982391740	-0.08972168	
1737982391741	-0.011291504	
1737982391742	0.0074768066	
1737982391743	0.01083374	
1737982391744	0.024871826	
1737982391745	0.020599365	
1737982391746	-9.918213E-4	
1737982391747	-0.06072998	
1737982391748	-0.008087158	
1737982391749	0.0030517578	
1737982391750	-0.01914978	
1737982391751	0.028533936	
1737982391752	0.01121521	
1737982391753	0.0020599365	
1737982391754	0.021133423	
1737982391755	-0.0051116943	
1737982391756	-0.032958984	
1737982391757	-0.027770996	
1737982391758	-0.014038086	
1737982391759	-6.1035156E-4	
1737982391760	-0.005722046	
1737982391761	-0.023117065	
1737982391762	-0.032577515	
1737982391763	-0.04096985	
1737982391764	0.003967285	
1737982391765	0.050354004	
1737982391766	0.009613037	
1737982391767	-0.0011444092	
1737982391768	0.053710938	
1737982391769	0.053329468	
1737982391770	0.047454834	
1737982391771	0.07408142	
1737982391772	0.056381226	
1737982391773	-1.5258789E-4	
1737982391774	-0.025634766	
1737982391775	-0.049743652	
1737982391776	-0.08407593	
1737982391777	-0.09994507	
1737982391778	-0.08514404	
1737982391779	-0.0440979	
1737982391780	-0.010070801	
1737982391781	0.0011444092	
1737982391782	0.119628906	
1737982391783	0.17410278	
1737982391784	0.029144287	
1737982391785	-0.013046265	
1737982391786	0.023498535	
1737982391787	-0.051116943	
1737982391788	-0.09162903	
1737982391789	-0.06385803	
1737982391790	-0.019226074	
1737982391791	0.024490356	
1737982391792	0.120010376	
1737982391793	0.10643005	
1737982391794	-0.034484863	
1737982391795	-0.045394897	
1737982391796	-0.0038909912	
1737982391797	0.06729126	
1737982391798	0.056228638	
1737982391799	-0.07644653	
1737982391800	-0.104599	
1737982391801	-0.05706787	
1737982391802	-0.0015258789	
1737982391803	-0.03135681	
1737982391804	-0.04638672	
1737982391805	0.078125	
1737982391806	0.080566406	
1737982391807	-0.024795532	
1737982391808	-0.017242432	
1737982391809	-0.035629272	
1737982391810	-0.0819397	
1737982391811	-0.069122314	
1737982391812	-0.0390625	
1737982391813	0.016403198	
1737982391814	0.03463745	
1737982391815	0.0037384033	
1737982391816	0.007171631	
1737982391817	0.0011444092	
1737982391818	-0.001373291	
1737982391819	0.051498413	
1737982391820	0.051193237	
1737982391821	0.030517578	
1737982391822	0.039367676	
1737982391823	0.042037964	
1737982391824	0.024642944	
1737982391825	0.009613037	
1737982391826	0.00793457	
1737982391827	0.002822876	
1737982391828	-0.0051116943	
1737982391829	-0.008010864	
1737982391830	-0.006866455	
1737982391831	-0.006790161	
1737982391832	-0.007095337	
1737982391833	-0.010299683	
1737982391834	-0.012359619	
1737982391835	-0.013885498	
1737982391836	-0.012741089	
1737982391837	-0.008010864	
1737982391838	-0.016479492	
1737982391839	-0.011444092	
1737982391840	-0.022354126	
1737982391841	-0.03807068	
1737982391842	-0.023727417	
1737982391843	-0.0077819824	
1737982391844	-0.0029754639	
1737982391845	-0.0045776367	
1737982391846	-0.0064086914	
1737982391847	-0.008392334	
1737982391848	-0.012588501	
1737982391849	-0.009384155	
1737982391850	-0.0033569336	
1737982391851	0.008621216	
1737982391852	0.016784668	
1737982391853	0.014038086	
1737982391854	0.021591187	
1737982391855	0.029220581	
1737982391856	0.03036499	
1737982391857	0.021820068	
1737982391858	0.009384155	
1737982391859	-0.0018310547	
1737982391860	-0.014419556	
1737982391861	-0.013885498	
1737982391862	-0.012588501	
1737982391863	-0.003967285	
1737982391864	-0.005645752	
1737982391865	-0.008773804	
1737982391866	-0.0075531006	
1737982391867	-0.018692017	
1737982391868	-0.0015258789	
1737982391869	0.0032043457	
1737982391870	0.0045776367	
1737982391871	0.0119018555	
1737982391872	-0.0025177002	
1737982391873	0.008392334	
1737982391874	0.0090789795	
1737982391875	0.015716553	
1737982391876	0.03425598	
1737982391877	0.024871826	
1737982391878	0.019302368	
1737982391879	-0.010910034	
1737982391880	-0.039749146	
1737982391881	-0.036849976	
1737982391882	-0.035095215	
1737982391883	-0.025177002	
1737982391884	-0.020599365	
1737982391885	-2.2888184E-4	
1737982391886	0.013809204	
1737982391887	0.013961792	
1737982391888	0.008239746	
1737982391889	0.00869751	
1737982391890	0.03868103	
1737982391891	0.065078735	
1737982391892	0.06309509	
1737982391893	0.039367676	
1737982391894	0.0032043457	
1737982391895	-0.00831604	
1737982391896	-0.015182495	
1737982391897	-0.020904541	
1737982391898	-0.029907227	
1737982391899	-0.046691895	
1737982391900	-0.05340576	
1737982391901	-0.055541992	
1737982391902	-0.08018494	
1737982391903	-0.078811646	
1737982391904	-0.03929138	
1737982391905	-0.027999878	
1737982391906	-0.019302368	
1737982391907	0.014877319	
1737982391908	0.07003784	
1737982391909	0.1109314	
1737982391910	0.09765625	
1737982391911	0.09918213	
1737982391912	0.09025574	
1737982391913	0.07484436	
1737982391914	0.048217773	
1737982391915	-0.013580322	
1737982391916	-0.07972717	
1737982391917	-0.0856781	
1737982391918	-0.07270813	
1737982391919	-0.054779053	
1737982391920	-0.019302368	
1737982391921	-0.02029419	
1737982391922	-0.029754639	
1737982391923	-0.020446777	
1737982391924	-0.02067566	
1737982391925	-0.017700195	
1737982391926	-0.020751953	
1737982391927	-0.012893677	
1737982391928	-0.032424927	
1737982391929	-0.039520264	
1737982391930	-0.026245117	
1737982391931	-0.031280518	
1737982391932	-0.026245117	
1737982391933	-0.015716553	
1737982391934	0.004119873	
1737982391935	0.0289917	
1737982391936	0.059661865	
1737982391937	0.103530884	
1737982391938	0.10650635	
1737982391939	0.061340332	
1737982391940	0.043258667	
1737982391941	0.05142212	
1737982391942	0.062026978	
1737982391943	0.044326782	
1737982391944	-0.020217896	
1737982391945	-0.04966736	
1737982391946	-0.04508972	
1737982391947	-0.06011963	
1737982391948	-0.06820679	
1737982391949	-0.08514404	
1737982391950	-0.095062256	
1737982391951	-0.048828125	
1737982391952	-0.0017547607	
1737982391953	0.040283203	
1737982391954	0.079574585	
1737982391955	0.08995056	
1737982391956	0.07209778	
1737982391957	0.05508423	
1737982391958	0.04524231	
1737982391959	0.03036499	
1737982391960	0.019607544	
1737982391961	0.010681152	
1737982391962	-0.022506714	
1737982391963	-0.079956055	
1737982391964	-0.09788513	
1737982391965	-0.06278992	
1737982391966	-0.044708252	
1737982391967	-0.054855347	
1737982391968	-0.042037964	
1737982391969	-0.02204895	
1737982391970	-0.012512207	
1737982391971	-0.013427734	
1737982391972	-0.018234253	
1737982391973	-0.008773804	
1737982391974	-0.0047302246	
1737982391975	-0.005340576	
1737982391976	0.004119873	
1737982391977	0.012664795	
1737982391978	0.008926392	
1737982391979	0.0077819824	
1737982391980	0.0146484375	
1737982391981	0.02708435	
1737982391982	0.033493042	
1737982391983	0.06317139	
1737982391984	0.092544556	
1737982391985	0.09552002	
1737982391986	0.044174194	
1737982391987	0.025482178	
1737982391988	0.04005432	
1737982391989	0.024414062	
1737982391990	0.01335144	
1737982391991	-0.024795532	
1737982391992	-0.04562378	
1737982391993	-0.0692749	
1737982391994	-0.07965088	
1737982391995	-0.048294067	
1737982391996	-0.034866333	
1737982391997	-0.027542114	
1737982391998	-0.024414062	
1737982391999	0.018081665	
1737982392000	0.063323975	
1737982392001	0.06278992	
1737982392002	0.045394897	
1737982392003	0.029373169	
1737982392004	0.045776367	
1737982392005	0.039215088	
1737982392006	-0.0066375732	
1737982392007	-0.024642944	
1737982392008	-0.04875183	
1737982392009	-0.08270264	
1737982392010	-0.13816833	
1737982392011	-0.14175415	
1737982392012	-0.08705139	
1737982392013	-0.051879883	
1737982392014	-0.024871826	
1737982392015	-0.006790161	
1737982392016	0.01411438	
1737982392017	0.046081543	
1737982392018	0.05783081	
1737982392019	0.0717926	
1737982392020	0.084991455	
1737982392021	0.046920776	
1737982392022	0.009231567	
1737982392023	-0.0010681152	
1737982392024	-0.0062561035	
1737982392025	0.006713867	
1737982392026	0.011138916	
1737982392027	-0.007019043	
1737982392028	-0.016021729	
1737982392029	-0.020904541	
1737982392030	-0.014190674	
1737982392031	-0.0074005127	
1737982392032	-0.016021729	
1737982392033	-0.011291504	
1737982392034	0.015487671	
1737982392035	0.035705566	
1737982392036	0.03982544	
1737982392037	0.0030517578	
1737982392038	-0.009841919	
1737982392039	-0.0119018555	
1737982392040	0.0019073486	
1737982392041	0.024108887	
1737982392042	0.0038146973	
1737982392043	0.010147095	
1737982392044	0.03265381	
1737982392045	0.038223267	
1737982392046	0.041427612	
1737982392047	-0.012512207	
1737982392048	-0.07736206	
1737982392049	-0.038986206	
1737982392050	0.01914978	
1737982392051	0.021057129	
1737982392052	0.027313232	
1737982392053	0.0090789795	
1737982392054	0.019836426	
1737982392055	0.04425049	
1737982392056	0.052261353	
1737982392057	0.06889343	
1737982392058	0.090789795	
1737982392059	0.050125122	
1737982392060	-0.044174194	
1737982392061	-0.08506775	
1737982392062	-0.07873535	
1737982392063	-0.08377075	
1737982392064	-0.086364746	
1737982392065	-0.062408447	
1737982392066	-0.048217773	
1737982392067	-0.030975342	
1737982392068	-0.0077056885	
1737982392069	-0.018081665	
1737982392070	-0.028381348	
1737982392071	-0.024337769	
1737982392072	-0.031051636	
1737982392073	-0.03845215	
1737982392074	-0.030212402	
1737982392075	-7.6293945E-5	
1737982392076	0.004272461	
1737982392077	0.009002686	
1737982392078	0.04295349	
1737982392079	0.050964355	
1737982392080	0.03829956	
1737982392081	0.008163452	
1737982392082	-0.026779175	
1737982392083	-0.03036499	
1737982392084	-0.03768921	
1737982392085	-0.024490356	
1737982392086	0.011062622	
1737982392087	0.026397705	
1737982392088	0.05859375	
1737982392089	0.08872986	
1737982392090	0.076828	
1737982392091	0.05882263	
1737982392092	0.042037964	
1737982392093	0.033340454	
1737982392094	0.033416748	
1737982392095	0.012283325	
1737982392096	-0.011978149	
1737982392097	-0.020751953	
1737982392098	-0.015487671	
1737982392099	-0.0048828125	
1737982392100	-0.016555786	
1737982392101	-0.024032593	
1737982392102	-0.030441284	
1737982392103	-0.050125122	
1737982392104	-0.0365448	
1737982392105	0.0048065186	
1737982392106	0.0060272217	
1737982392107	0.0048828125	
1737982392108	0.035858154	
1737982392109	0.042800903	
1737982392110	0.0051116943	
1737982392111	-0.026397705	
1737982392112	-0.01335144	
1737982392113	-0.016021729	
1737982392114	-0.013046265	
1737982392115	0.014038086	
1737982392116	0.016708374	
1737982392117	-0.03845215	
1737982392118	-0.09841919	
1737982392119	-0.07926941	
1737982392120	-0.07316589	
1737982392121	-0.044708252	
1737982392122	0.061950684	
1737982392123	0.09086609	
1737982392124	0.025253296	
1737982392125	0.019302368	
1737982392126	0.024337769	
1737982392127	-0.017166138	
1737982392128	-0.009841919	
1737982392129	0.014953613	
1737982392130	0.023727417	
1737982392131	0.013427734	
1737982392132	-0.010757446	
1737982392133	0.018310547	
1737982392134	0.062332153	
1737982392135	0.05569458	
1737982392136	-0.0046539307	
1737982392137	-0.06362915	
1737982392138	-0.04371643	
1737982392139	0.010528564	
1737982392140	0.070114136	
1737982392141	0.09124756	
1737982392142	0.038528442	
1737982392143	-0.0119018555	
1737982392144	-0.005874634	
1737982392145	0.0104522705	
1737982392146	-0.026931763	
1737982392147	-0.06790161	
1737982392148	-0.09941101	
1737982392149	-0.0932312	
1737982392150	-0.06607056	
1737982392151	-0.04737854	
1737982392152	-0.015411377	
1737982392153	0.0062561035	
1737982392154	0.033798218	
1737982392155	0.050582886	
1737982392156	0.011749268	
1737982392157	-0.027923584	
1737982392158	-0.016708374	
1737982392159	-0.004043579	
1737982392160	-0.0010681152	
1737982392161	0.013122559	
1737982392162	0.016326904	
1737982392163	0.024871826	
1737982392164	0.036239624	
1737982392165	0.015182495	
1737982392166	-0.0022125244	
1737982392167	-0.002822876	
1737982392168	-9.918213E-4	
1737982392169	0.0010681152	
1737982392170	0.002746582	
1737982392171	0.019302368	
1737982392172	0.025634766	
1737982392173	0.02456665	
1737982392174	0.021743774	
1737982392175	0.0062561035	
1737982392176	0.010070801	
1737982392177	0.013656616	
1737982392178	0.017318726	
1737982392179	0.037841797	
1737982392180	0.022735596	
1737982392181	0.0	
1737982392182	-0.015182495	
1737982392183	-0.01953125	
1737982392184	-0.023269653	
1737982392185	-0.04524231	
1737982392186	-0.040664673	
1737982392187	-0.042114258	
1737982392188	-0.027542114	
1737982392189	0.016860962	
1737982392190	0.023651123	
1737982392191	-0.010223389	
1737982392192	-0.026626587	
1737982392193	-0.014190674	
1737982392194	-0.0118255615	
1737982392195	-0.018157959	
1737982392196	0.002670288	
1737982392197	0.028533936	
1737982392198	-0.002822876	
1737982392199	-0.017242432	
1737982392200	0.019760132	
1737982392201	0.018005371	
1737982392202	0.013504028	
1737982392203	0.03074646	
1737982392204	0.017471313	
1737982392205	0.026550293	
1737982392206	0.03753662	
1737982392207	0.0012207031	
1737982392208	-0.03753662	
1737982392209	-0.04425049	
1737982392210	-0.03303528	
1737982392211	-0.031051636	
1737982392212	-0.013580322	
1737982392213	0.026779175	
1737982392214	0.05218506	
1737982392215	0.059280396	
1737982392216	0.009613037	
1737982392217	-0.06774902	
1737982392218	-0.08232117	
1737982392219	-0.082473755	
1737982392220	-0.06965637	
1737982392221	-0.054244995	
1737982392222	-0.052642822	
1737982392223	0.024414062	
1737982392224	0.111083984	
1737982392225	0.0844574	
1737982392226	-0.0077819824	
1737982392227	-0.012588501	
1737982392228	0.03883362	
1737982392229	0.038986206	
1737982392230	0.041503906	
1737982392231	0.027236938	
1737982392232	0.0051879883	
1737982392233	-0.0030517578	
1737982392234	-0.030059814	
1737982392235	-0.046081543	
1737982392236	-0.039749146	
1737982392237	-0.0035858154	
1737982392238	0.036315918	
1737982392239	0.030899048	
1737982392240	0.033950806	
1737982392241	0.044708252	
1737982392242	0.06752014	
1737982392243	0.12245178	
1737982392244	0.12451172	
1737982392245	0.03517151	
1737982392246	-0.059280396	
1737982392247	-0.060043335	
1737982392248	-0.034179688	
1737982392249	-0.115737915	
1737982392250	-0.21995544	
1737982392251	-0.21965027	
1737982392252	-0.16960144	
1737982392253	-0.065841675	
1737982392254	0.06576538	
1737982392255	0.13427734	
1737982392256	0.116500854	
1737982392257	0.07156372	
1737982392258	0.11878967	
1737982392259	0.09307861	
1737982392260	-0.012512207	
1737982392261	-0.029373169	
1737982392262	-0.042114258	
1737982392263	-0.036010742	
1737982392264	-0.044555664	
1737982392265	-0.06652832	
1737982392266	-0.038757324	
1737982392267	0.012664795	
1737982392268	0.085754395	
1737982392269	0.12458801	
1737982392270	0.10986328	
1737982392271	0.09628296	
1737982392272	0.09422302	
1737982392273	0.1159668	
1737982392274	0.12947083	
1737982392275	0.11856079	
1737982392276	0.061264038	
1737982392277	-0.03868103	
1737982392278	-0.11222839	
1737982392279	-0.12886047	
1737982392280	-0.16319275	
1737982392281	-0.18600464	
1737982392282	-0.19721985	
1737982392283	-0.20751953	
1737982392284	-0.12550354	
1737982392285	-0.056533813	
1737982392286	-0.061187744	
1737982392287	0.022583008	
1737982392288	0.13999939	
1737982392289	0.09780884	
1737982392290	0.0012969971	
1737982392291	0.0048828125	
1737982392292	-0.03715515	
1737982392293	-0.13450623	
1737982392294	-0.16166687	
1737982392295	-0.14030457	
1737982392296	-0.07461548	
1737982392297	-0.020980835	
1737982392298	0.025939941	
1737982392299	0.094451904	
1737982392300	0.1435852	
1737982392301	0.21385193	
1737982392302	0.25657654	
1737982392303	0.23239136	
1737982392304	0.17234802	
1737982392305	0.056381226	
1737982392306	-0.009002686	
1737982392307	0.0030517578	
1737982392308	-0.010757446	
1737982392309	-0.043792725	
1737982392310	-0.05882263	
1737982392311	-0.084609985	
1737982392312	-0.10032654	
1737982392313	-0.07652283	
1737982392314	-0.06645203	
1737982392315	-0.06111145	
1737982392316	7.6293945E-5	
1737982392317	0.05126953	
1737982392318	0.06706238	
1737982392319	0.06614685	
1737982392320	0.02067566	
1737982392321	-0.002746582	
1737982392322	0.024795532	
1737982392323	0.032196045	
1737982392324	-0.016174316	
1737982392325	-0.1424408	
1737982392326	-0.21858215	
1737982392327	-0.10986328	
1737982392328	-0.0076293945	
1737982392329	0.028915405	
1737982392330	0.06889343	
1737982392331	0.100631714	
1737982392332	0.14816284	
1737982392333	0.24543762	
1737982392334	0.2697754	
1737982392335	0.1108551	
1737982392336	-0.01159668	
1737982392337	-0.07827759	
1737982392338	-0.07461548	
1737982392339	0.03753662	
1737982392340	0.0667572	
1737982392341	-0.067214966	
1737982392342	-0.15274048	
1737982392343	-0.20729065	
1737982392344	-0.24963379	
1737982392345	-0.19622803	
1737982392346	-0.13580322	
1737982392347	-0.07736206	
1737982392348	-0.012741089	
1737982392349	0.04425049	
1737982392350	0.1335907	
1737982392351	0.18630981	
1737982392352	0.15304565	
1737982392353	0.08476257	
1737982392354	0.054473877	
1737982392355	0.027694702	
1737982392356	0.0022888184	
1737982392357	-0.02243042	
1737982392358	-0.0692749	
1737982392359	-0.10719299	
1737982392360	-0.10749817	
1737982392361	-0.113220215	
1737982392362	-0.14442444	
1737982392363	-0.16265869	
1737982392364	-0.12687683	
1737982392365	-0.07850647	
1737982392366	-0.03501892	
1737982392367	0.0018310547	
1737982392368	0.0031280518	
1737982392369	0.03540039	
1737982392370	0.078048706	
1737982392371	0.072631836	
1737982392372	0.10864258	
1737982392373	0.13404846	
1737982392374	0.13053894	
1737982392375	0.12619019	
1737982392376	0.1296997	
1737982392377	0.12336731	
1737982392378	0.09864807	
1737982392379	0.08682251	
1737982392380	0.067977905	
1737982392381	0.051879883	
1737982392382	0.027389526	
1737982392383	0.014190674	
1737982392384	0.016708374	
1737982392385	0.013961792	
1737982392386	0.0119018555	
1737982392387	0.02418518	
1737982392388	0.011367798	
1737982392389	-0.0051879883	
1737982392390	-0.026931763	
1737982392391	-0.06813049	
1737982392392	-0.1285553	
1737982392393	-0.1437378	
1737982392394	-0.10696411	
1737982392395	-0.095443726	
1737982392396	-0.08369446	
1737982392397	-0.059814453	
1737982392398	-0.04737854	
1737982392399	-0.013198853	
1737982392400	-0.013427734	
1737982392401	-0.00869751	
1737982392402	0.0021362305	
1737982392403	0.005264282	
1737982392404	0.0012207031	
1737982392405	-0.015182495	
1737982392406	-0.01083374	
1737982392407	-0.021209717	
1737982392408	-0.022888184	
1737982392409	-0.026855469	
1737982392410	-0.031814575	
1737982392411	-0.024108887	
1737982392412	-0.031433105	
1737982392413	-0.020523071	
1737982392414	-0.010223389	
1737982392415	-0.0029754639	
1737982392416	0.0063323975	
1737982392417	0.011138916	
1737982392418	0.02166748	
1737982392419	0.019073486	
1737982392420	0.028915405	
1737982392421	0.031585693	
1737982392422	0.03868103	
1737982392423	0.057754517	
1737982392424	0.046081543	
1737982392425	0.054016113	
1737982392426	0.032806396	
1737982392427	0.034332275	
1737982392428	0.027923584	
1737982392429	0.01586914	
1737982392430	0.026931763	
1737982392431	0.0119018555	
1737982392432	0.010070801	
1737982392433	0.012664795	
1737982392434	-0.00541687	
1737982392435	-0.0036621094	
1737982392436	-0.0119018555	
1737982392437	-0.020370483	
1737982392438	-0.013809204	
1737982392439	-0.030822754	
1737982392440	-0.034561157	
1737982392441	-0.03517151	
1737982392442	0.014419556	
1737982392443	0.04989624	
1737982392444	0.044555664	
1737982392445	0.047454834	
1737982392446	0.02998352	
1737982392447	0.03883362	
1737982392448	0.046539307	
1737982392449	0.042877197	
1737982392450	0.046463013	
1737982392451	0.011062622	
1737982392452	0.008468628	
1737982392453	-0.018539429	
1737982392454	-0.04447937	
1737982392455	-0.04676819	
1737982392456	-0.055618286	
1737982392457	-0.07949829	
1737982392458	-0.09971619	
1737982392459	-0.09628296	
1737982392460	-0.09605408	
1737982392461	-0.08987427	
1737982392462	-0.052719116	
1737982392463	-0.026473999	
1737982392464	0.0019836426	
1737982392465	-0.021362305	
1737982392466	-0.03517151	
1737982392467	-0.03517151	
1737982392468	-0.028076172	
1737982392469	-0.0062561035	
1737982392470	0.014724731	
1737982392471	0.0605011	
1737982392472	0.100631714	
1737982392473	0.08415222	
1737982392474	0.07354736	
1737982392475	0.06523132	
1737982392476	0.04447937	
1737982392477	0.028915405	
1737982392478	0.011138916	
1737982392479	0.013504028	
1737982392480	0.017471313	
1737982392481	0.012741089	
1737982392482	-7.6293945E-4	
1737982392483	8.392334E-4	
1737982392484	-0.008621216	
1737982392485	-0.031280518	
1737982392486	-0.06904602	
1737982392487	-0.07575989	
1737982392488	-0.047073364	
1737982392489	-0.049438477	
1737982392490	-0.046157837	
1737982392491	-0.032424927	
1737982392492	-0.016784668	
1737982392493	0.009765625	
1737982392494	0.020065308	
1737982392495	0.026855469	
1737982392496	0.034484863	
1737982392497	0.037078857	
1737982392498	0.018081665	
1737982392499	0.040359497	
1737982392500	0.03967285	
1737982392501	0.034103394	
1737982392502	0.043640137	
1737982392503	0.039978027	
1737982392504	0.063934326	
1737982392505	0.04951477	
1737982392506	0.03829956	
1737982392507	0.048446655	
1737982392508	0.022888184	
1737982392509	0.028762817	
1737982392510	0.011291504	
1737982392511	-0.01121521	
1737982392512	-0.014572144	
1737982392513	-0.047607422	
1737982392514	-0.041656494	
1737982392515	-0.060653687	
1737982392516	-0.09689331	
1737982392517	-0.09063721	
1737982392518	-0.111083984	
1737982392519	-0.10002136	
1737982392520	-0.08781433	
1737982392521	-0.06576538	
1737982392522	-0.06225586	
1737982392523	-0.03425598	
1737982392524	0.006713867	
1737982392525	0.013427734	
1737982392526	0.031967163	
1737982392527	0.04928589	
1737982392528	0.04119873	
1737982392529	0.043029785	
1737982392530	0.046310425	
1737982392531	0.03593445	
1737982392532	0.046157837	
1737982392533	0.049362183	
1737982392534	0.09902954	
1737982392535	0.09376526	
1737982392536	0.072784424	
1737982392537	0.14038086	
1737982392538	0.09101868	
1737982392539	-0.05088806	
1737982392540	-0.12893677	
1737982392541	-0.04951477	
1737982392542	-0.006866455	
1737982392543	-0.023727417	
1737982392544	-0.09780884	
1737982392545	-0.1725769	
1737982392546	-0.13450623	
1737982392547	-0.0932312	
1737982392548	-0.019302368	
1737982392549	0.08216858	
1737982392550	0.06637573	
1737982392551	0.031051636	
1737982392552	-0.0051116943	
1737982392553	-0.022888184	
1737982392554	0.060272217	
1737982392555	0.13160706	
1737982392556	0.07286072	
1737982392557	-0.023651123	
1737982392558	-0.061187744	
1737982392559	-0.0016784668	
1737982392560	0.027542114	
1737982392561	0.023956299	
1737982392562	0.034179688	
1737982392563	4.5776367E-4	
1737982392564	-0.005340576	
1737982392565	0.014419556	
1737982392566	0.014877319	
1737982392567	0.012969971	
1737982392568	0.0038146973	
1737982392569	0.014724731	
1737982392570	0.02319336	
1737982392571	-0.00289917	
1737982392572	-0.019760132	
1737982392573	-0.07133484	
1737982392574	-0.10437012	
1737982392575	-0.0957489	
1737982392576	-0.11352539	
1737982392577	-0.088653564	
1737982392578	-0.002822876	
1737982392579	0.058670044	
1737982392580	0.11291504	
1737982392581	0.013885498	
1737982392582	-0.09262085	
1737982392583	-0.03112793	
1737982392584	-0.02418518	
1737982392585	-0.07324219	
1737982392586	-0.04562378	
1737982392587	0.004501343	
1737982392588	0.045394897	
1737982392589	0.060043335	
1737982392590	0.045700073	
1737982392591	0.03440857	
1737982392592	0.05630493	
1737982392593	0.066986084	
1737982392594	0.084609985	
1737982392595	0.07720947	
1737982392596	0.03692627	
1737982392597	0.018997192	
1737982392598	-0.017852783	
1737982392599	-0.010681152	
1737982392600	0.012207031	
1737982392601	0.007171631	
1737982392602	0.03540039	
1737982392603	0.013809204	
1737982392604	-0.008392334	
1737982392605	-0.01914978	
1737982392606	-0.015411377	
1737982392607	-0.017623901	
1737982392608	-0.02670288	
1737982392609	-0.02204895	
1737982392610	-0.077819824	
1737982392611	-0.0642395	
1737982392612	-0.03593445	
1737982392613	-0.0365448	
1737982392614	-0.03868103	
1737982392615	-0.032424927	
1737982392616	0.010681152	
1737982392617	0.029907227	
1737982392618	0.041427612	
1737982392619	0.018463135	
1737982392620	-0.0023651123	
1737982392621	0.0047302246	
1737982392622	0.014801025	
1737982392623	0.036315918	
1737982392624	0.008850098	
1737982392625	-0.0019073486	
1737982392626	-0.008468628	
1737982392627	-0.005722046	
1737982392628	-0.013656616	
1737982392629	-0.010070801	
1737982392630	0.020751953	
1737982392631	-0.015563965	
1737982392632	-0.040359497	
1737982392633	-0.053482056	
1737982392634	-0.03883362	
1737982392635	-0.014266968	
1737982392636	0.025253296	
1737982392637	0.04508972	
1737982392638	-0.008010864	
1737982392639	-0.015563965	
1737982392640	-0.015487671	
1737982392641	-0.019454956	
1737982392642	0.059661865	
1737982392643	0.095214844	
1737982392644	0.06629944	
1737982392645	0.10978699	
1737982392646	0.073394775	
1737982392647	-0.048828125	
1737982392648	-0.09460449	
1737982392649	-0.07766724	
1737982392650	-0.050125122	
1737982392651	-0.059432983	
1737982392652	0.0038909912	
1737982392653	0.05996704	
1737982392654	0.03463745	
1737982392655	0.041275024	
1737982392656	0.06439209	
1737982392657	-0.01373291	
1737982392658	-0.069122314	
1737982392659	0.0017547607	
1737982392660	-0.015945435	
1737982392661	-0.04890442	
1737982392662	-0.032348633	
1737982392663	-0.06713867	
1737982392664	-0.06187439	
1737982392665	-0.041732788	
1737982392666	-0.022583008	
1737982392667	0.0038146973	
1737982392668	0.0033569336	
1737982392669	0.02746582	
1737982392670	0.06919861	
1737982392671	0.059661865	
1737982392672	-0.009613037	
1737982392673	-0.07255554	
1737982392674	-0.04600525	
1737982392675	0.006790161	
1737982392676	0.029220581	
1737982392677	0.008239746	
1737982392678	0.00541687	
1737982392679	0.027160645	
1737982392680	0.02357483	
1737982392681	0.028457642	
1737982392682	0.024337769	
1737982392683	0.016860962	
1737982392684	-0.010375977	
1737982392685	-0.044784546	
1737982392686	-0.030212402	
1737982392687	0.0017547607	
1737982392688	0.016479492	
1737982392689	0.017700195	
1737982392690	0.02166748	
1737982392691	0.01838684	
1737982392692	0.0016021729	
1737982392693	-0.0075531006	
1737982392694	-0.024337769	
1737982392695	-0.009841919	
1737982392696	0.0064086914	
1737982392697	0.012130737	
1737982392698	0.023956299	
1737982392699	0.015335083	
1737982392700	0.012435913	
1737982392701	0.05126953	
1737982392702	0.059280396	
1737982392703	4.5776367E-4	
1737982392704	-0.02128601	
1737982392705	-0.009231567	
1737982392706	-0.019302368	
1737982392707	-0.03211975	
1737982392708	-0.014572144	
1737982392709	-0.029144287	
1737982392710	-0.078201294	
1737982392711	-0.0680542	
1737982392712	-0.054244995	
1737982392713	0.010757446	
1737982392714	0.027008057	
1737982392715	-0.038375854	
1737982392716	-0.022201538	
1737982392717	-0.012588501	
1737982392718	-0.0064086914	
1737982392719	0.00793457	
1737982392720	0.016098022	
1737982392721	0.03616333	
1737982392722	0.055847168	
1737982392723	0.044555664	
1737982392724	0.026626587	
1737982392725	0.011672974	
1737982392726	0.07141113	
1737982392727	0.066604614	
1737982392728	-0.02746582	
1737982392729	-0.035324097	
1737982392730	-0.053100586	
1737982392731	-0.012893677	
1737982392732	0.0340271	
1737982392733	-0.03677368	
1737982392734	-0.016021729	
1737982392735	0.047454834	
1737982392736	0.033950806	
1737982392737	-0.062561035	
1737982392738	-0.15296936	
1737982392739	-0.11581421	
1737982392740	-0.024032593	
1737982392741	0.06851196	
1737982392742	0.12741089	
1737982392743	0.041732788	
1737982392744	-0.028305054	
1737982392745	0.026016235	
1737982392746	-0.012130737	
1737982392747	-0.035095215	
1737982392748	-0.007247925	
1737982392749	-0.045013428	
1737982392750	-0.030212402	
1737982392751	0.015335083	
1737982392752	0.06713867	
1737982392753	0.08529663	
1737982392754	-0.0048065186	
1737982392755	-0.051727295	
1737982392756	-0.103378296	
1737982392757	-0.15640259	
1737982392758	-0.07873535	
1737982392759	0.008239746	
1737982392760	0.06706238	
1737982392761	0.111312866	
1737982392762	0.11581421	
1737982392763	0.08834839	
1737982392764	-0.0073242188	
1737982392765	-0.039749146	
1737982392766	-3.0517578E-4	
1737982392767	0.022888184	
1737982392768	0.06011963	
1737982392769	0.08087158	
1737982392770	0.056915283	
1737982392771	0.0010681152	
1737982392772	-0.049362183	
1737982392773	-0.06919861	
1737982392774	-0.112457275	
1737982392775	-0.06889343	
1737982392776	0.02861023	
1737982392777	0.0843811	
1737982392778	0.0957489	
1737982392779	0.023498535	
1737982392780	-0.03868103	
1737982392781	-0.045318604	
1737982392782	-0.08277893	
1737982392783	-0.086746216	
1737982392784	-0.044021606	
1737982392785	-0.0365448	
1737982392786	-0.02029419	
1737982392787	0.0025939941	
1737982392788	0.01335144	
1737982392789	-0.0050354004	
1737982392790	-0.038146973	
1737982392791	-0.02746582	
1737982392792	0.022125244	
1737982392793	0.07423401	
1737982392794	0.07286072	
1737982392795	0.083847046	
1737982392796	0.046691895	
1737982392797	0.01411438	
1737982392798	0.007171631	
1737982392799	-0.022888184	
1737982392800	-0.035705566	
1737982392801	-0.062408447	
1737982392802	-0.022659302	
1737982392803	0.041809082	
1737982392804	0.057525635	
1737982392805	0.012283325	
1737982392806	-0.049972534	
1737982392807	-0.011520386	
1737982392808	-0.018844604	
1737982392809	-0.057525635	
1737982392810	-0.032730103	
1737982392811	0.018615723	
1737982392812	0.04989624	
1737982392813	0.030288696	
1737982392814	0.041732788	
1737982392815	0.03616333	
1737982392816	-0.009994507	
1737982392817	-0.032348633	
1737982392818	-0.051116943	
1737982392819	-0.09780884	
1737982392820	-0.091552734	
1737982392821	-0.012435913	
1737982392822	0.064086914	
1737982392823	0.07644653	
1737982392824	8.392334E-4	
1737982392825	-0.03616333	
1737982392826	-0.050125122	
1737982392827	-0.059051514	
1737982392828	-7.6293945E-5	
1737982392829	0.07469177	
1737982392830	0.09849548	
1737982392831	0.047912598	
1737982392832	0.03768921	
1737982392833	0.05203247	
1737982392834	-0.009002686	
1737982392835	-0.03326416	
1737982392836	-0.05607605	
1737982392837	-0.047683716	
1737982392838	-0.054016113	
1737982392839	-0.035858154	
1737982392840	0.005493164	
1737982392841	-0.0016784668	
1737982392842	-0.002746582	
1737982392843	0.0012969971	
1737982392844	0.008239746	
1737982392845	-0.00831604	
1737982392846	-0.021591187	
1737982392847	-6.866455E-4	
1737982392848	0.009231567	
1737982392849	0.017623901	
1737982392850	-8.392334E-4	
1737982392851	0.031967163	
1737982392852	0.104599	
1737982392853	0.10032654	
1737982392854	0.11260986	
1737982392855	0.055847168	
1737982392856	-0.052871704	
1737982392857	-0.02822876	
1737982392858	-0.030593872	
1737982392859	-0.11444092	
1737982392860	-0.16822815	
1737982392861	-0.13793945	
1737982392862	-0.09315491	
1737982392863	-0.04486084	
1737982392864	0.06843567	
1737982392865	0.14205933	
1737982392866	0.1347351	
1737982392867	0.056915283	
1737982392868	-0.05897522	
1737982392869	-0.03303528	
1737982392870	-0.009689331	
1737982392871	-0.027999878	
1737982392872	0.03578186	
1737982392873	0.040512085	
1737982392874	0.04219055	
1737982392875	0.064315796	
1737982392876	0.039749146	
1737982392877	-0.0031280518	
1737982392878	-0.07583618	
1737982392879	-0.13313293	
1737982392880	-0.08300781	
1737982392881	-0.025100708	
1737982392882	-0.022735596	
1737982392883	0.012588501	
1737982392884	0.033950806	
1737982392885	0.011520386	
1737982392886	0.05279541	
1737982392887	0.055847168	
1737982392888	-0.02243042	
1737982392889	-0.008163452	
1737982392890	0.012207031	
1737982392891	-0.015411377	
1737982392892	0.008239746	
1737982392893	0.024490356	
1737982392894	0.03440857	
1737982392895	0.019989014	
1737982392896	-0.01449585	
1737982392897	-0.03288269	
1737982392898	-0.086517334	
1737982392899	-0.083236694	
1737982392900	-0.042037964	
1737982392901	-0.023422241	
1737982392902	-0.040664673	
1737982392903	-0.019760132	
1737982392904	0.050964355	
1737982392905	0.080337524	
1737982392906	0.0680542	
1737982392907	0.062179565	
1737982392908	0.083618164	
1737982392909	0.056533813	
1737982392910	-0.0032806396	
1737982392911	-0.029754639	
1737982392912	-0.032958984	
1737982392913	-0.03578186	
1737982392914	-0.016098022	
1737982392915	0.0048828125	
1737982392916	-0.013504028	
1737982392917	-0.004501343	
1737982392918	0.04562378	
1737982392919	0.059661865	
1737982392920	0.004425049	
1737982392921	-0.029678345	
1737982392922	-0.024871826	
1737982392923	-0.018844604	
1737982392924	-0.015029907	
1737982392925	-0.016174316	
1737982392926	-0.020904541	
1737982392927	-0.025634766	
1737982392928	-0.02166748	
1737982392929	-0.016326904	
1737982392930	-0.016479492	
1737982392931	-0.007858276	
1737982392932	-0.0064086914	
1737982392933	-0.009689331	
1737982392934	-0.0049591064	
1737982392935	-0.008926392	
1737982392936	-0.010757446	
1737982392937	-0.0048065186	
1737982392938	-0.009307861	
1737982392939	8.392334E-4	
1737982392940	-0.009384155	
1737982392941	0.0015258789	
1737982392942	0.0021362305	
1737982392943	0.0065612793	
1737982392944	0.01663208	
1737982392945	0.024414062	
1737982392946	0.017929077	
1737982392947	0.0021362305	
1737982392948	0.0104522705	
1737982392949	0.01159668	
1737982392950	0.009689331	
1737982392951	8.392334E-4	
1737982392952	-0.020217896	
1737982392953	-0.03929138	
1737982392954	-0.024261475	
1737982392955	-0.00289917	
1737982392956	0.015411377	
1737982392957	0.026473999	
1737982392958	0.016784668	
1737982392959	0.018920898	
1737982392960	0.049591064	
1737982392961	0.07064819	
1737982392962	0.0844574	
1737982392963	0.07041931	
1737982392964	0.01586914	
1737982392965	0.0011444092	
1737982392966	-0.018539429	
1737982392967	-0.043945312	
1737982392968	-0.043563843	
1737982392969	-0.053482056	
1737982392970	-0.051193237	
1737982392971	-0.050125122	
1737982392972	-0.038757324	
1737982392973	-0.03517151	
1737982392974	-0.029373169	
1737982392975	-0.050354004	
1737982392976	-0.059890747	
1737982392977	-0.053863525	
1737982392978	-0.07148743	
1737982392979	-0.06942749	
1737982392980	-0.056533813	
1737982392981	-0.011367798	
1737982392982	0.035324097	
1737982392983	0.08834839	
1737982392984	0.12428284	
1737982392985	0.14556885	
1737982392986	0.18630981	
1737982392987	0.13061523	
1737982392988	0.026245117	
1737982392989	-0.02822876	
1737982392990	-0.041122437	
1737982392991	-0.030136108	
1737982392992	-0.014801025	
1737982392993	-0.0061035156	
1737982392994	-0.00793457	
1737982392995	-0.01701355	
1737982392996	-0.02708435	
1737982392997	-0.048828125	
1737982392998	-0.056381226	
1737982392999	-0.040512085	
1737982393000	-0.023498535	
1737982393001	-0.00579834	
1737982393002	0.012817383	
1737982393003	-0.015029907	
1737982393004	-0.045013428	
1737982393005	-0.033111572	
1737982393006	-0.018997192	
1737982393007	-0.0022125244	
1737982393008	6.1035156E-4	
1737982393009	-5.340576E-4	
1737982393010	0.010604858	
1737982393011	0.01121521	
1737982393012	0.013046265	
1737982393013	0.028152466	
1737982393014	0.03791809	
1737982393015	0.021133423	
1737982393016	-0.025024414	
1737982393017	-0.03868103	
1737982393018	-0.050201416	
1737982393019	-0.050048828	
1737982393020	-0.046463013	
1737982393021	-0.0579834	
1737982393022	-0.005264282	
1737982393023	0.031585693	
1737982393024	0.024261475	
1737982393025	0.030212402	
1737982393026	0.043640137	
1737982393027	0.055847168	
1737982393028	0.05531311	
1737982393029	0.046157837	
1737982393030	0.044937134	
1737982393031	0.044937134	
1737982393032	0.0119018555	
1737982393033	-0.0035095215	
1737982393034	0.0038909912	
1737982393035	0.0051116943	
1737982393036	-0.009841919	
1737982393037	-0.001373291	
1737982393038	0.033340454	
1737982393039	0.06568909	
1737982393040	0.048599243	
1737982393041	-0.012435913	
1737982393042	-0.04371643	
1737982393043	-0.060653687	
1737982393044	-0.06439209	
1737982393045	-0.041275024	
1737982393046	-0.037384033	
1737982393047	-0.014419556	
1737982393048	-0.039138794	
1737982393049	-0.072631836	
1737982393050	-0.02708435	
1737982393051	-0.006942749	
1737982393052	0.010147095	
1737982393053	0.019836426	
1737982393054	-0.01838684	
1737982393055	-0.025100708	
1737982393056	0.013427734	
1737982393057	0.030822754	
1737982393058	0.053863525	
1737982393059	0.05859375	
1737982393060	0.0035095215	
1737982393061	-0.02456665	
1737982393062	-0.028305054	
1737982393063	-0.049972534	
1737982393064	-0.031204224	
1737982393065	-0.0076293945	
1737982393066	-0.052108765	
1737982393067	-0.06225586	
1737982393068	-0.02998352	
1737982393069	-0.01121521	
1737982393070	0.022125244	
1737982393071	0.04875183	
1737982393072	0.060195923	
1737982393073	0.105285645	
1737982393074	0.07827759	
1737982393075	0.015640259	
1737982393076	-0.021438599	
1737982393077	-0.04547119	
1737982393078	-0.023422241	
1737982393079	0.018463135	
1737982393080	0.053634644	
1737982393081	0.08552551	
1737982393082	0.1235199	
1737982393083	0.103378296	
1737982393084	0.04562378	
1737982393085	-0.011062622	
1737982393086	-0.04623413	
1737982393087	-0.041809082	
1737982393088	-0.04425049	
1737982393089	-0.062026978	
1737982393090	-0.06690979	
1737982393091	-0.084609985	
1737982393092	-0.10482788	
1737982393093	-0.10055542	
1737982393094	-0.08262634	
1737982393095	-0.08628845	
1737982393096	-0.06752014	
1737982393097	-0.024108887	
1737982393098	-0.007247925	
1737982393099	-0.033569336	
1737982393100	0.006790161	
1737982393101	0.06851196	
1737982393102	0.0730896	
1737982393103	0.087890625	
1737982393104	0.14183044	
1737982393105	0.15396118	
1737982393106	0.08483887	
1737982393107	0.03303528	
1737982393108	0.018081665	
1737982393109	-0.015258789	
1737982393110	-0.015029907	
1737982393111	0.0132751465	
1737982393112	-0.03250122	
1737982393113	-0.0592041	
1737982393114	-0.042495728	
1737982393115	-0.048065186	
1737982393116	-0.042266846	
1737982393117	-0.042800903	
1737982393118	-0.043411255	
1737982393119	-0.053100586	
1737982393120	-0.05050659	
1737982393121	-0.050201416	
1737982393122	-0.054473877	
1737982393123	-0.013122559	
1737982393124	0.024261475	
1737982393125	0.054244995	
1737982393126	0.10131836	
1737982393127	0.08483887	
1737982393128	0.082855225	
1737982393129	0.083847046	
1737982393130	0.068740845	
1737982393131	0.06813049	
1737982393132	0.011367798	
1737982393133	-0.021972656	
1737982393134	-0.044937134	
1737982393135	-0.081329346	
1737982393136	-0.06904602	
1737982393137	-0.061950684	
1737982393138	-0.039901733	
1737982393139	-0.01838684	
1737982393140	-0.015792847	
1737982393141	-0.006942749	
1737982393142	0.004043579	
1737982393143	6.1035156E-4	
1737982393144	0.017166138	
1737982393145	0.0132751465	
1737982393146	-0.018920898	
1737982393147	-0.008468628	
1737982393148	-0.012512207	
1737982393149	-0.020599365	
1737982393150	-0.015258789	
1737982393151	-0.021209717	
1737982393152	-0.0048065186	
1737982393153	0.0132751465	
1737982393154	0.009918213	
1737982393155	0.01876831	
1737982393156	0.021591187	
1737982393157	0.018157959	
1737982393158	0.029525757	
1737982393159	0.028762817	
1737982393160	0.024032593	
1737982393161	0.012817383	
1737982393162	0.001449585	
1737982393163	-0.0032043457	
1737982393164	-0.016021729	
1737982393165	-0.009460449	
1737982393166	-0.0064086914	
1737982393167	-0.005340576	
1737982393168	0.0045776367	
1737982393169	-0.015335083	
1737982393170	-0.012512207	
1737982393171	-0.022888184	
1737982393172	-0.03135681	
1737982393173	-0.033493042	
1737982393174	-0.03211975	
1737982393175	-0.0119018555	
1737982393176	0.008468628	
1737982393177	0.012512207	
1737982393178	0.008239746	
1737982393179	0.004348755	
1737982393180	0.017929077	
1737982393181	0.027694702	
1737982393182	0.04020691	
1737982393183	0.012969971	
1737982393184	0.0076293945	
1737982393185	0.06454468	
1737982393186	0.0730896	
1737982393187	-0.007858276	
1737982393188	-0.0541687	
1737982393189	-0.03211975	
1737982393190	-0.023803711	
1737982393191	0.016860962	
1737982393192	0.05088806	
1737982393193	0.04135132	
1737982393194	0.01777649	
1737982393195	-0.021133423	
1737982393196	-0.03883362	
1737982393197	-0.031967163	
1737982393198	-0.044326782	
1737982393199	-0.060653687	
1737982393200	-0.04638672	
1737982393201	-0.024795532	
1737982393202	-0.025787354	
1737982393203	-0.050048828	
1737982393204	-0.0466156	
1737982393205	-0.035858154	
1737982393206	-0.02609253	
1737982393207	-0.030517578	
1737982393208	-0.045547485	
1737982393209	-0.06210327	
1737982393210	-0.023803711	
1737982393211	0.0579834	
1737982393212	0.08544922	
1737982393213	0.12069702	
1737982393214	0.1663208	
1737982393215	0.17150879	
1737982393216	0.16319275	
1737982393217	0.112838745	
1737982393218	0.04814148	
1737982393219	-0.019226074	
1737982393220	-0.049743652	
1737982393221	-0.044174194	
1737982393222	-0.06851196	
1737982393223	-0.055770874	
1737982393224	-0.08087158	
1737982393225	-0.12908936	
1737982393226	-0.102005005	
1737982393227	-0.10139465	
1737982393228	-0.09849548	
1737982393229	-0.06652832	
1737982393230	-0.046081543	
1737982393231	0.0016021729	
1737982393232	0.050582886	
1737982393233	0.053024292	
1737982393234	0.05378723	
1737982393235	0.08544922	
1737982393236	0.10574341	
1737982393237	0.079193115	
1737982393238	0.015335083	
1737982393239	-0.009155273	
1737982393240	-0.020980835	
1737982393241	-0.039520264	
1737982393242	-0.035324097	
1737982393243	-0.017929077	
1737982393244	-0.009613037	
1737982393245	-0.020599365	
1737982393246	-0.034561157	
1737982393247	-0.038223267	
1737982393248	-0.014419556	
1737982393249	0.0074768066	
1737982393250	0.019226074	
1737982393251	0.0074005127	
1737982393252	-0.008163452	
1737982393253	0.031661987	
1737982393254	0.04196167	
1737982393255	0.030136108	
1737982393256	0.01953125	
1737982393257	0.0104522705	
1737982393258	0.013809204	
1737982393259	0.018081665	
1737982393260	0.0065612793	
1737982393261	0.011444092	
1737982393262	0.023269653	
1737982393263	0.011062622	
1737982393264	-0.022735596	
1737982393265	-0.023651123	
1737982393266	0.005569458	
1737982393267	-0.006866455	
1737982393268	-0.0023651123	
1737982393269	-0.008621216	
1737982393270	-0.0063323975	
1737982393271	0.022201538	
1737982393272	0.008163452	
1737982393273	0.02243042	
1737982393274	0.012817383	
1737982393275	-0.07362366	
1737982393276	-0.10177612	
1737982393277	-0.0031280518	
1737982393278	0.028533936	
1737982393279	-0.02609253	
1737982393280	-0.071640015	
1737982393281	-0.075149536	
1737982393282	-0.054779053	
1737982393283	-0.06317139	
1737982393284	-0.03227234	
1737982393285	0.10231018	
1737982393286	0.1398468	
1737982393287	0.04486084	
1737982393288	0.0390625	
1737982393289	0.03501892	
1737982393290	-7.6293945E-5	
1737982393291	0.025253296	
1737982393292	-0.004272461	
1737982393293	-0.018997192	
1737982393294	0.025024414	
1737982393295	0.03135681	
1737982393296	0.0104522705	
1737982393297	-0.01121521	
1737982393298	-0.03425598	
1737982393299	-0.06340027	
1737982393300	-0.08453369	
1737982393301	-0.05783081	
1737982393302	-0.017547607	
1737982393303	-0.008926392	
1737982393304	-0.0075531006	
1737982393305	0.005264282	
1737982393306	0.0051116943	
1737982393307	-0.012207031	
1737982393308	0.010604858	
1737982393309	0.036697388	
1737982393310	0.010375977	
1737982393311	-0.016098022	
1737982393312	0.015029907	
1737982393313	0.043411255	
1737982393314	0.05126953	
1737982393315	0.0818634	
1737982393316	0.10429382	
1737982393317	0.16868591	
1737982393318	0.2191925	
1737982393319	0.16014099	
1737982393320	0.031585693	
1737982393321	-0.1410675	
1737982393322	-0.25291443	
1737982393323	-0.27778625	
1737982393324	-0.28442383	
1737982393325	-0.24742126	
1737982393326	-0.12657166	
1737982393327	-0.041732788	
1737982393328	-0.043029785	
1737982393329	-0.06828308	
1737982393330	-0.047683716	
1737982393331	0.077819824	
1737982393332	0.21606445	
1737982393333	0.2633667	
1737982393334	0.17410278	
1737982393335	0.11314392	
1737982393336	0.111083984	
1737982393337	0.091171265	
1737982393338	0.053329468	
1737982393339	0.013580322	
1737982393340	0.020065308	
1737982393341	0.017242432	
1737982393342	0.02357483	
1737982393343	0.031661987	
1737982393344	0.007247925	
1737982393345	-0.0289917	
1737982393346	-0.022583008	
1737982393347	0.0050354004	
1737982393348	0.026779175	
1737982393349	0.017700195	
1737982393350	-0.0025939941	
1737982393351	-0.031280518	
1737982393352	-0.057907104	
1737982393353	-0.07583618	
1737982393354	-0.086364746	
1737982393355	-0.107040405	
1737982393356	-0.13061523	
1737982393357	-0.11520386	
1737982393358	-0.05218506	
1737982393359	-0.047225952	
1737982393360	-0.1322937	
1737982393361	-0.2004242	
1737982393362	-0.20378113	
1737982393363	-0.13816833	
1737982393364	-0.06713867	
1737982393365	-0.020828247	
1737982393366	0.060195923	
1737982393367	0.13305664	
1737982393368	0.24734497	
1737982393369	0.35446167	
1737982393370	0.31303406	
1737982393371	0.1309967	
1737982393372	-7.6293945E-4	
1737982393373	-0.008392334	
1737982393374	-0.010681152	
1737982393375	-0.009765625	
1737982393376	-0.05706787	
1737982393377	-0.12283325	
1737982393378	-0.12664795	
1737982393379	-0.0920105	
1737982393380	-0.04135132	
1737982393381	-0.01449585	
1737982393382	0.0066375732	
1737982393383	0.029754639	
1737982393384	0.06484985	
1737982393385	0.17227173	
1737982393386	0.17303467	
1737982393387	-0.012512207	
1737982393388	-0.10383606	
1737982393389	-0.078125	
1737982393390	-0.042037964	
1737982393391	0.014190674	
1737982393392	0.0554657	
1737982393393	0.08560181	
1737982393394	0.07102966	
1737982393395	0.0415802	
1737982393396	0.070877075	
1737982393397	0.094833374	
1737982393398	0.09719849	
1737982393399	0.047683716	
1737982393400	-0.0717926	
1737982393401	-0.15579224	
1737982393402	-0.13374329	
1737982393403	-0.14930725	
1737982393404	-0.17372131	
1737982393405	-0.14533997	
1737982393406	-0.1235199	
1737982393407	-0.017089844	
1737982393408	0.05378723	
1737982393409	0.031585693	
1737982393410	0.06355286	
1737982393411	0.067977905	
1737982393412	0.025100708	
1737982393413	0.004348755	
1737982393414	0.03807068	
1737982393415	0.06523132	
1737982393416	0.06614685	
1737982393417	0.057907104	
1737982393418	-0.013122559	
1737982393419	-0.05722046	
1737982393420	-0.04295349	
1737982393421	-0.01411438	
1737982393422	0.069885254	
1737982393423	0.11886597	
1737982393424	0.108795166	
1737982393425	0.095214844	
1737982393426	0.074539185	
1737982393427	0.0718689	
1737982393428	0.055160522	
1737982393429	-0.024642944	
1737982393430	-0.100631714	
1737982393431	-0.13702393	
1737982393432	-0.17799377	
1737982393433	-0.19554138	
1737982393434	-0.2027893	
1737982393435	-0.20263672	
1737982393436	-0.17684937	
1737982393437	-0.14686584	
1737982393438	-0.106048584	
1737982393439	-0.06866455	
1737982393440	-0.017700195	
1737982393441	0.023803711	
1737982393442	0.070877075	
1737982393443	0.106048584	
1737982393444	0.13114929	
1737982393445	0.15579224	
1737982393446	0.15083313	
1737982393447	0.15975952	
1737982393448	0.15296936	
1737982393449	0.12741089	
1737982393450	0.12580872	
1737982393451	0.09742737	
1737982393452	0.09819031	
1737982393453	0.07972717	
1737982393454	0.065078735	
1737982393455	0.050125122	
1737982393456	0.008239746	
1737982393457	-0.007171631	
1737982393458	-0.025939941	
1737982393459	-0.04272461	
1737982393460	-0.047073364	
1737982393461	-0.052337646	
1737982393462	-0.052337646	
1737982393463	-0.051956177	
1737982393464	-0.061187744	
1737982393465	-0.05683899	
1737982393466	-0.086517334	
1737982393467	-0.13328552	
1737982393468	-0.15068054	
1737982393469	-0.1538086	
1737982393470	-0.118255615	
1737982393471	-0.0605011	
1737982393472	-0.038604736	
1737982393473	0.0025177002	
1737982393474	0.025482178	
1737982393475	0.049209595	
1737982393476	0.07904053	
1737982393477	0.095825195	
1737982393478	0.09933472	
1737982393479	0.075912476	
1737982393480	0.034103394	
1737982393481	-0.009536743	
1737982393482	-0.013961792	
1737982393483	-0.03845215	
1737982393484	-0.03944397	
1737982393485	0.0016784668	
1737982393486	-0.029144287	
1737982393487	-0.029830933	
1737982393488	-0.06317139	
1737982393489	-0.13191223	
1737982393490	-0.12435913	
1737982393491	0.033798218	
1737982393492	0.2419281	
1737982393493	0.2671051	
1737982393494	0.21270752	
1737982393495	0.13565063	
1737982393496	-0.018157959	
1737982393497	-0.08262634	
1737982393498	-0.123672485	
1737982393499	-0.13305664	
1737982393500	-0.05340576	
1737982393501	-0.007019043	
1737982393502	-0.009231567	
1737982393503	-0.06706238	
1737982393504	-0.22140503	
1737982393505	-0.21011353	
1737982393506	-0.077819824	
1737982393507	0.051574707	
1737982393508	0.119018555	
1737982393509	0.1966095	
1737982393510	0.21064758	
1737982393511	-0.032730103	
1737982393512	-0.1537323	
1737982393513	-0.021820068	
1737982393514	0.028305054	
1737982393515	0.016021729	
1737982393516	0.14030457	
1737982393517	0.46012878	
1737982393518	0.52345276	
1737982393519	0.15800476	
1737982393520	-0.15640259	
1737982393521	-0.3591919	
1737982393522	-0.5176544	
1737982393523	-0.51452637	
1737982393524	-0.24749756	
1737982393525	0.003967285	
1737982393526	0.28556824	
1737982393527	0.45959473	
1737982393528	0.31318665	
1737982393529	0.10902405	
1737982393530	-0.04676819	
1737982393531	-0.10871887	
1737982393532	-0.12680054	
1737982393533	-0.096969604	
1737982393534	-0.14434814	
1737982393535	-0.19645691	
1737982393536	-0.07476807	
1737982393537	-0.016403198	
1737982393538	-0.028533936	
1737982393539	0.02204895	
1737982393540	0.017852783	
1737982393541	0.03387451	
1737982393542	0.079574585	
1737982393543	0.03845215	
1737982393544	-0.03112793	
1737982393545	-0.05882263	
1737982393546	-0.038757324	
1737982393547	-0.006866455	
1737982393548	0.08529663	
1737982393549	0.12283325	
1737982393550	0.04371643	
1737982393551	-0.0046539307	
1737982393552	-0.039215088	
1737982393553	-0.07850647	
1737982393554	-0.06637573	
1737982393555	0.024795532	
1737982393556	0.12557983	
1737982393557	0.11383057	
1737982393558	0.017547607	
1737982393559	-0.04333496	
1737982393560	-0.07911682	
1737982393561	-0.07347107	
1737982393562	-0.0844574	
1737982393563	-0.13328552	
1737982393564	-0.11550903	
1737982393565	-0.094833374	
1737982393566	-0.0655365	
1737982393567	-0.009765625	
1737982393568	0.048217773	
1737982393569	0.07751465	
1737982393570	0.07331848	
1737982393571	0.07003784	
1737982393572	0.05027771	
1737982393573	0.01838684	
1737982393574	0.023498535	
1737982393575	0.07316589	
1737982393576	0.08308411	
1737982393577	0.07461548	
1737982393578	0.049972534	
1737982393579	0.020523071	
1737982393580	0.027236938	
1737982393581	-0.061569214	
1737982393582	-0.12817383	
1737982393583	0.0032043457	
1737982393584	0.18623352	
1737982393585	0.22468567	
1737982393586	0.2015686	
1737982393587	0.18371582	
1737982393588	0.08026123	
1737982393589	0.006790161	
1737982393590	-0.074920654	
1737982393591	-0.14320374	
1737982393592	-0.12084961	
1737982393593	-0.14595032	
1737982393594	-0.15991211	
1737982393595	-0.12031555	
1737982393596	-0.117263794	
1737982393597	-0.14724731	
1737982393598	-0.12184143	
1737982393599	-0.13557434	
1737982393600	-0.14717102	
1737982393601	-0.07316589	
1737982393602	-0.028076172	
1737982393603	0.017547607	
1737982393604	0.041732788	
1737982393605	-0.0018310547	
1737982393606	-0.019607544	
1737982393607	0.035858154	
1737982393608	0.045928955	
1737982393609	0.007171631	
1737982393610	0.12931824	
1737982393611	0.2292633	
1737982393612	0.15487671	
1737982393613	0.00869751	
1737982393614	-0.08117676	
1737982393615	-0.08354187	
1737982393616	-0.029296875	
1737982393617	-0.005722046	
1737982393618	0.01586914	
1737982393619	0.08483887	
1737982393620	0.079574585	
1737982393621	0.056533813	
1737982393622	0.033798218	
1737982393623	6.1035156E-4	
1737982393624	0.029220581	
1737982393625	0.037612915	
1737982393626	0.033416748	
1737982393627	0.018005371	
1737982393628	0.025939941	
1737982393629	0.07171631	
1737982393630	0.11802673	
1737982393631	0.054244995	
1737982393632	-0.043945312	
1737982393633	-0.08338928	
1737982393634	-0.12840271	
1737982393635	-0.09391785	
1737982393636	-0.033569336	
1737982393637	-0.0743866	
1737982393638	-0.128479	
1737982393639	-0.13465881	
