# OpenSignals Text File Format
# {"00:80:E1:26:9F:85":{"sensor":["EMG"],"device name":"00:80:E1:26:9F:85","column":["timestamp","EMG"],"sync interval":2,"time":"09:41:11","comments":"","keywords":"","device connection":"BLE00:80:E1:26:9F:85","channels":[0],"date":"2025-02-28","mode":0,"digital IO":[],"firmware version":259,"device":"musclebanplux","position":0,"sampling rate":1000,"label":["EMG"],"resolution":[16],"special":[{}],"sleeve color":["UNKNOWN"]}}
# EndOfHeader
1740732071880	0.008010864	
1740732071881	0.009231567	
1740732071882	0.0065612793	
1740732071883	-0.0012969971	
1740732071884	-0.0038146973	
1740732071885	-0.004043579	
1740732071886	-0.012359619	
1740732071887	-0.01411438	
1740732071888	0.009689331	
1740732071889	0.033950806	
1740732071890	0.027160645	
1740732071891	0.0066375732	
1740732071892	-0.0011444092	
1740732071893	-0.0038146973	
1740732071894	0.004119873	
1740732071895	0.013198853	
1740732071896	0.009384155	
1740732071897	0.012359619	
1740732071898	0.012969971	
1740732071899	0.003967285	
1740732071900	0.0011444092	
1740732071901	-0.0016784668	
1740732071902	-0.007171631	
1740732071903	-0.010223389	
1740732071904	-0.01586914	
1740732071905	-0.017089844	
1740732071906	-0.014038086	
1740732071907	-0.006942749	
1740732071908	-0.008163452	
1740732071909	-0.008926392	
1740732071910	0.004119873	
1740732071911	-4.5776367E-4	
1740732071912	-0.009002686	
1740732071913	3.0517578E-4	
1740732071914	0.0012207031	
1740732071915	-7.6293945E-5	
1740732071916	-0.0012207031	
1740732071917	-0.011367798	
1740732071918	-0.010986328	
1740732071919	-0.0025177002	
1740732071920	-0.0016021729	
1740732071921	-0.004501343	
1740732071922	-0.0051116943	
1740732071923	0.006790161	
1740732071924	0.03387451	
1740732071925	0.048980713	
1740732071926	0.030136108	
1740732071927	0.01121521	
1740732071928	0.0077056885	
1740732071929	-0.0038146973	
1740732071930	-0.018463135	
1740732071931	-0.02029419	
1740732071932	-0.02670288	
1740732071933	-0.024337769	
1740732071934	-0.008087158	
1740732071935	-0.009231567	
1740732071936	-0.0033569336	
1740732071937	0.0060272217	
1740732071938	0.006866455	
1740732071939	0.015640259	
1740732071940	0.026245117	
1740732071941	0.019302368	
1740732071942	-0.0030517578	
1740732071943	-0.012893677	
1740732071944	-0.01449585	
1740732071945	-0.0049591064	
1740732071946	0.0010681152	
1740732071947	-0.0104522705	
1740732071948	-0.011444092	
1740732071949	0.004119873	
1740732071950	0.025634766	
1740732071951	0.0015258789	
1740732071952	-0.03173828	
1740732071953	-0.014724731	
1740732071954	-0.019683838	
1740732071955	-0.023651123	
1740732071956	-3.0517578E-4	
1740732071957	0.0076293945	
1740732071958	0.022354126	
1740732071959	0.027694702	
1740732071960	0.021591187	
1740732071961	0.0020599365	
1740732071962	-0.040283203	
1740732071963	-0.056533813	
1740732071964	-0.031814575	
1740732071965	-0.001373291	
1740732071966	0.0440979	
1740732071967	0.09010315	
1740732071968	0.083465576	
1740732071969	0.07232666	
1740732071970	0.042800903	
1740732071971	-0.031967163	
1740732071972	-0.058441162	
1740732071973	-0.058746338	
1740732071974	-0.06210327	
1740732071975	-0.0289917	
1740732071976	-0.0037384033	
1740732071977	-0.002822876	
1740732071978	-0.003967285	
1740732071979	0.0034332275	
1740732071980	-0.0034332275	
1740732071981	-0.01625061	
1740732071982	-0.009994507	
1740732071983	-0.0046539307	
1740732071984	0.01121521	
1740732071985	0.031204224	
1740732071986	0.03929138	
1740732071987	0.01411438	
1740732071988	-0.020523071	
1740732071989	-0.021743774	
1740732071990	-0.010528564	
1740732071991	0.015563965	
1740732071992	0.03303528	
1740732071993	0.026168823	
1740732071994	0.007247925	
1740732071995	-0.015411377	
1740732071996	-0.02029419	
1740732071997	-0.017166138	
1740732071998	-0.020370483	
1740732071999	-0.02861023	
1740732072000	-0.017929077	
1740732072001	0.0045776367	
1740732072002	0.01083374	
1740732072003	0.01701355	
1740732072004	0.02609253	
1740732072005	0.02708435	
1740732072006	0.032043457	
1740732072007	0.023880005	
1740732072008	-0.012283325	
1740732072009	-0.023727417	
1740732072010	-0.0118255615	
1740732072011	-0.017166138	
1740732072012	-0.021362305	
1740732072013	-0.027389526	
1740732072014	-0.02861023	
1740732072015	-0.012893677	
1740732072016	0.0034332275	
1740732072017	0.024337769	
1740732072018	0.043029785	
1740732072019	0.018615723	
1740732072020	-0.01335144	
1740732072021	0.0012969971	
1740732072022	0.0038146973	
1740732072023	-0.008468628	
1740732072024	9.918213E-4	
1740732072025	-0.0022888184	
1740732072026	-0.0025177002	
1740732072027	4.5776367E-4	
1740732072028	-0.009689331	
1740732072029	-0.008392334	
1740732072030	-0.002746582	
1740732072031	-0.0032043457	
1740732072032	-0.0016784668	
1740732072033	0.0022888184	
1740732072034	0.0030517578	
1740732072035	0.004272461	
1740732072036	0.010528564	
1740732072037	0.010604858	
1740732072038	0.0051879883	
1740732072039	-0.0012969971	
1740732072040	-0.0017547607	
1740732072041	0.004119873	
1740732072042	0.0046539307	
1740732072043	0.0046539307	
1740732072044	0.0061798096	
1740732072045	-0.008163452	
1740732072046	-0.01739502	
1740732072047	-2.2888184E-4	
1740732072048	0.0074768066	
1740732072049	0.015258789	
1740732072050	0.015106201	
1740732072051	0.0	
1740732072052	7.6293945E-4	
1740732072053	-0.0049591064	
1740732072054	-0.011138916	
1740732072055	-0.008926392	
1740732072056	-0.016021729	
1740732072057	-0.018234253	
1740732072058	-0.0023651123	
1740732072059	0.018539429	
1740732072060	0.026779175	
1740732072061	0.018844604	
1740732072062	0.005645752	
1740732072063	-0.01373291	
1740732072064	-0.028076172	
1740732072065	-0.03616333	
1740732072066	-0.03692627	
1740732072067	-0.034942627	
1740732072068	-0.032348633	
1740732072069	-0.01373291	
1740732072070	-0.013198853	
1740732072071	-0.011672974	
1740732072072	0.02494812	
1740732072073	0.04524231	
1740732072074	0.05180359	
1740732072075	0.04562378	
1740732072076	0.017929077	
1740732072077	0.012207031	
1740732072078	0.028076172	
1740732072079	0.035324097	
1740732072080	0.03135681	
1740732072081	0.015029907	
1740732072082	0.006866455	
1740732072083	0.022506714	
1740732072084	0.016555786	
1740732072085	-0.015563965	
1740732072086	-0.030288696	
1740732072087	-0.04333496	
1740732072088	-0.059051514	
1740732072089	-0.06149292	
1740732072090	-0.04272461	
1740732072091	-0.00869751	
1740732072092	0.01083374	
1740732072093	-4.5776367E-4	
1740732072094	-0.022964478	
1740732072095	-0.012283325	
1740732072096	0.010604858	
1740732072097	0.0146484375	
1740732072098	0.024261475	
1740732072099	0.021972656	
1740732072100	0.007247925	
1740732072101	0.013122559	
1740732072102	0.0065612793	
1740732072103	-0.007019043	
1740732072104	0.0019073486	
1740732072105	0.0048828125	
1740732072106	0.0059509277	
1740732072107	0.010299683	
1740732072108	-0.0050354004	
1740732072109	-0.01953125	
1740732072110	-0.024108887	
1740732072111	-0.025177002	
1740732072112	-0.019302368	
1740732072113	-0.0023651123	
1740732072114	0.023422241	
1740732072115	0.005264282	
1740732072116	-0.021133423	
1740732072117	0.002822876	
1740732072118	0.018005371	
1740732072119	0.019073486	
1740732072120	0.015792847	
1740732072121	0.009918213	
1740732072122	0.026779175	
1740732072123	0.036010742	
1740732072124	0.022201538	
1740732072125	-0.0016784668	
1740732072126	-0.014266968	
1740732072127	-0.005645752	
1740732072128	0.020217896	
1740732072129	0.02960205	
1740732072130	0.008850098	
1740732072131	0.0048828125	
1740732072132	0.0076293945	
1740732072133	-0.015640259	
1740732072134	-0.02532959	
1740732072135	-0.028686523	
1740732072136	-0.043411255	
1740732072137	-0.037231445	
1740732072138	-0.03326416	
1740732072139	-0.035095215	
1740732072140	-0.018692017	
1740732072141	-0.013122559	
1740732072142	-0.018920898	
1740732072143	-0.0034332275	
1740732072144	0.012741089	
1740732072145	0.0146484375	
1740732072146	0.025253296	
1740732072147	0.039596558	
1740732072148	0.054244995	
1740732072149	0.052261353	
1740732072150	0.015335083	
1740732072151	-0.0060272217	
1740732072152	0.0037384033	
1740732072153	0.004348755	
1740732072154	-0.0061798096	
1740732072155	-0.0064086914	
1740732072156	0.009689331	
1740732072157	-0.0048828125	
1740732072158	-0.052261353	
1740732072159	-0.077056885	
1740732072160	-0.06362915	
1740732072161	-0.012359619	
1740732072162	0.03135681	
1740732072163	0.027694702	
1740732072164	0.004425049	
1740732072165	0.00541687	
1740732072166	0.038604736	
1740732072167	0.04310608	
1740732072168	0.018005371	
1740732072169	0.0064086914	
1740732072170	-0.0045776367	
1740732072171	-0.002822876	
1740732072172	0.002670288	
1740732072173	-0.00579834	
1740732072174	-0.0010681152	
1740732072175	-0.0012207031	
1740732072176	-0.009460449	
1740732072177	-0.009689331	
1740732072178	-0.016784668	
1740732072179	-0.008392334	
1740732072180	0.017700195	
1740732072181	0.02708435	
1740732072182	0.019378662	
1740732072183	0.0077819824	
1740732072184	-0.00289917	
1740732072185	-0.017700195	
1740732072186	-0.022125244	
1740732072187	-0.017166138	
1740732072188	-0.013046265	
1740732072189	-0.009460449	
1740732072190	-0.0060272217	
1740732072191	-0.001449585	
1740732072192	-0.008163452	
1740732072193	-0.009460449	
1740732072194	2.2888184E-4	
1740732072195	6.866455E-4	
1740732072196	0.0025939941	
1740732072197	0.013427734	
1740732072198	0.021438599	
1740732072199	0.021133423	
1740732072200	0.014343262	
1740732072201	0.0032043457	
1740732072202	-0.016174316	
1740732072203	-0.02532959	
1740732072204	0.00541687	
1740732072205	0.023956299	
1740732072206	-0.0010681152	
1740732072207	0.0012207031	
1740732072208	0.0038909912	
1740732072209	-0.014038086	
1740732072210	-0.015258789	
1740732072211	-0.021896362	
1740732072212	-0.026016235	
1740732072213	-0.015716553	
1740732072214	0.0016784668	
1740732072215	0.014190674	
1740732072216	0.017166138	
1740732072217	0.02357483	
1740732072218	0.010986328	
1740732072219	0.0018310547	
1740732072220	0.022659302	
1740732072221	0.029373169	
1740732072222	0.0051116943	
1740732072223	-0.011367798	
1740732072224	-0.0034332275	
1740732072225	-0.012817383	
1740732072226	-0.029754639	
1740732072227	-0.01838684	
1740732072228	-0.0018310547	
1740732072229	0.013122559	
1740732072230	0.008773804	
1740732072231	-0.00289917	
1740732072232	0.012283325	
1740732072233	0.004348755	
1740732072234	-0.014190674	
1740732072235	-0.010147095	
1740732072236	0.0046539307	
1740732072237	0.018615723	
1740732072238	0.014266968	
1740732072239	0.016021729	
1740732072240	0.03845215	
1740732072241	0.030517578	
1740732072242	-0.01083374	
1740732072243	-0.033416748	
1740732072244	-0.03440857	
1740732072245	-0.025787354	
1740732072246	-0.027694702	
1740732072247	-0.038604736	
1740732072248	-0.03211975	
1740732072249	-0.014572144	
1740732072250	0.016098022	
1740732072251	0.026016235	
1740732072252	-0.004425049	
1740732072253	-0.0019836426	
1740732072254	0.006790161	
1740732072255	-0.019607544	
1740732072256	-0.025405884	
1740732072257	-0.0038909912	
1740732072258	0.016479492	
1740732072259	0.035858154	
1740732072260	0.04890442	
1740732072261	0.023651123	
1740732072262	0.0119018555	
1740732072263	0.039749146	
1740732072264	0.034866333	
1740732072265	0.016403198	
1740732072266	-0.012664795	
1740732072267	-0.03768921	
1740732072268	-0.005493164	
1740732072269	-0.0010681152	
1740732072270	-0.021133423	
1740732072271	-0.010528564	
1740732072272	-0.019836426	
1740732072273	-0.020141602	
1740732072274	-0.002746582	
1740732072275	-0.0017547607	
1740732072276	-0.0045776367	
1740732072277	-0.014724731	
1740732072278	-0.020980835	
1740732072279	-0.016174316	
1740732072280	-0.00793457	
1740732072281	0.012588501	
1740732072282	0.029449463	
1740732072283	0.0146484375	
1740732072284	-0.007095337	
1740732072285	-0.013656616	
1740732072286	-0.0064086914	
1740732072287	0.005874634	
1740732072288	0.005874634	
1740732072289	0.005874634	
1740732072290	0.006713867	
1740732072291	0.014419556	
1740732072292	0.015487671	
1740732072293	-0.0090789795	
1740732072294	-0.010604858	
1740732072295	0.009231567	
1740732072296	0.014038086	
1740732072297	0.014190674	
1740732072298	0.014801025	
1740732072299	0.013885498	
1740732072300	0.009307861	
1740732072301	-0.0061798096	
1740732072302	-0.013809204	
1740732072303	-0.012741089	
1740732072304	-0.00869751	
1740732072305	-0.0031280518	
1740732072306	-4.5776367E-4	
1740732072307	-0.0020599365	
1740732072308	-0.0033569336	
1740732072309	-0.009307861	
1740732072310	-0.015945435	
1740732072311	-0.0118255615	
1740732072312	-0.012969971	
1740732072313	-0.01159668	
1740732072314	-0.005569458	
1740732072315	-0.004425049	
1740732072316	-0.0010681152	
1740732072317	0.0038146973	
1740732072318	0.0119018555	
1740732072319	0.010757446	
1740732072320	0.0051879883	
1740732072321	0.009155273	
1740732072322	0.0031280518	
1740732072323	-3.8146973E-4	
1740732072324	0.008850098	
1740732072325	0.009918213	
1740732072326	0.0064849854	
1740732072327	0.007858276	
1740732072328	0.005722046	
1740732072329	-0.0018310547	
1740732072330	-0.005874634	
1740732072331	-0.015258789	
1740732072332	-0.020599365	
1740732072333	-0.009536743	
1740732072334	-0.004348755	
1740732072335	0.0051116943	
1740732072336	0.01914978	
1740732072337	0.00541687	
1740732072338	-0.0062561035	
1740732072339	-0.012207031	
1740732072340	-0.02708435	
1740732072341	-0.024261475	
1740732072342	-0.0077819824	
1740732072343	0.016784668	
1740732072344	0.03791809	
1740732072345	0.016098022	
1740732072346	-0.022888184	
1740732072347	6.866455E-4	
1740732072348	0.022201538	
1740732072349	0.0029754639	
1740732072350	0.029525757	
1740732072351	0.053024292	
1740732072352	0.033340454	
1740732072353	0.023269653	
1740732072354	0.011291504	
1740732072355	-0.00869751	
1740732072356	-0.026550293	
1740732072357	-0.044021606	
1740732072358	-0.05630493	
1740732072359	-0.050582886	
1740732072360	-0.027923584	
1740732072361	-0.009689331	
1740732072362	0.01586914	
1740732072363	0.03479004	
1740732072364	0.015182495	
1740732072365	0.01373291	
1740732072366	0.012435913	
1740732072367	-0.016326904	
1740732072368	-0.01838684	
1740732072369	-0.02960205	
1740732072370	-0.048294067	
1740732072371	-0.045013428	
1740732072372	-0.025024414	
1740732072373	0.007247925	
1740732072374	0.007171631	
1740732072375	-0.012054443	
1740732072376	0.0024414062	
1740732072377	0.04257202	
1740732072378	0.05996704	
1740732072379	0.056381226	
1740732072380	0.0566864	
1740732072381	0.044937134	
1740732072382	0.018615723	
1740732072383	-0.0031280518	
1740732072384	-0.015487671	
1740732072385	-0.021133423	
1740732072386	-0.026779175	
1740732072387	-0.030670166	
1740732072388	-0.020141602	
1740732072389	-0.013122559	
1740732072390	-0.01586914	
1740732072391	-0.0119018555	
1740732072392	-0.004196167	
1740732072393	0.004119873	
1740732072394	0.01083374	
1740732072395	0.020370483	
1740732072396	0.021820068	
1740732072397	0.019073486	
1740732072398	0.018920898	
1740732072399	0.0051879883	
1740732072400	2.2888184E-4	
1740732072401	-0.004501343	
1740732072402	-0.014038086	
1740732072403	-0.012817383	
1740732072404	-0.015563965	
1740732072405	-0.012130737	
1740732072406	-0.01121521	
1740732072407	-0.017700195	
1740732072408	-0.011138916	
1740732072409	-0.009307861	
1740732072410	-0.011749268	
1740732072411	-0.0048828125	
1740732072412	0.0048828125	
1740732072413	0.010299683	
1740732072414	0.007247925	
1740732072415	0.0025939941	
1740732072416	-0.00289917	
1740732072417	0.0015258789	
1740732072418	0.010070801	
1740732072419	0.0025177002	
1740732072420	-3.8146973E-4	
1740732072421	8.392334E-4	
1740732072422	0.0	
1740732072423	0.007247925	
1740732072424	0.011291504	
1740732072425	0.009384155	
1740732072426	6.866455E-4	
1740732072427	-6.866455E-4	
1740732072428	0.0037384033	
1740732072429	0.0062561035	
1740732072430	0.011672974	
1740732072431	0.0025939941	
1740732072432	-0.0061798096	
1740732072433	-0.0012207031	
1740732072434	-0.0035095215	
1740732072435	-0.0025177002	
1740732072436	-0.0025177002	
1740732072437	-0.008850098	
1740732072438	-0.0090789795	
1740732072439	-0.007171631	
1740732072440	-0.004119873	
1740732072441	-0.007019043	
1740732072442	-0.010299683	
1740732072443	-0.003967285	
1740732072444	0.0048065186	
1740732072445	0.006790161	
1740732072446	-0.0015258789	
1740732072447	-0.0036621094	
1740732072448	0.007858276	
1740732072449	0.0074768066	
1740732072450	6.866455E-4	
1740732072451	0.001449585	
1740732072452	-0.0019073486	
1740732072453	-0.004348755	
1740732072454	-0.004043579	
1740732072455	-0.0017547607	
1740732072456	-0.0032806396	
1740732072457	-0.007858276	
1740732072458	0.005874634	
1740732072459	0.016784668	
1740732072460	0.01449585	
1740732072461	0.0020599365	
1740732072462	-0.011749268	
1740732072463	7.6293945E-4	
1740732072464	0.004043579	
1740732072465	0.0012207031	
1740732072466	0.010986328	
1740732072467	0.004043579	
1740732072468	0.006713867	
1740732072469	0.015029907	
1740732072470	0.008239746	
1740732072471	-0.001373291	
1740732072472	-0.013580322	
1740732072473	-0.020141602	
1740732072474	-0.02166748	
1740732072475	-0.018615723	
1740732072476	-0.0132751465	
1740732072477	-0.0049591064	
1740732072478	0.0050354004	
1740732072479	0.012435913	
1740732072480	0.01701355	
1740732072481	0.015182495	
1740732072482	0.01777649	
1740732072483	0.0025177002	
1740732072484	-0.028915405	
1740732072485	-0.027236938	
1740732072486	-0.010223389	
1740732072487	-0.009765625	
1740732072488	-0.008621216	
1740732072489	-0.00869751	
1740732072490	-0.0045776367	
1740732072491	0.0062561035	
1740732072492	0.012741089	
1740732072493	0.015258789	
1740732072494	0.009155273	
1740732072495	-0.005493164	
1740732072496	-0.008544922	
1740732072497	0.0049591064	
1740732072498	0.02456665	
1740732072499	0.054626465	
1740732072500	0.052337646	
1740732072501	0.014953613	
1740732072502	-0.021820068	
1740732072503	-0.044631958	
1740732072504	-0.023117065	
1740732072505	-0.023498535	
1740732072506	-0.03578186	
1740732072507	-0.004425049	
1740732072508	9.1552734E-4	
1740732072509	0.0077819824	
1740732072510	0.031433105	
1740732072511	0.03829956	
1740732072512	0.051574707	
1740732072513	0.043640137	
1740732072514	0.014038086	
1740732072515	-0.021743774	
1740732072516	-0.03173828	
1740732072517	-0.01701355	
1740732072518	-0.03074646	
1740732072519	-0.040283203	
1740732072520	-0.040664673	
1740732072521	-0.046539307	
1740732072522	-0.046539307	
1740732072523	-0.03227234	
1740732072524	-0.009307861	
1740732072525	0.0015258789	
1740732072526	0.0073242188	
1740732072527	0.012588501	
1740732072528	0.012664795	
1740732072529	0.018997192	
1740732072530	0.026855469	
1740732072531	0.027999878	
1740732072532	0.027542114	
1740732072533	0.021133423	
1740732072534	0.0059509277	
1740732072535	-0.0048065186	
1740732072536	6.1035156E-4	
1740732072537	0.014953613	
1740732072538	0.015106201	
1740732072539	0.010910034	
1740732072540	0.013427734	
1740732072541	0.0062561035	
1740732072542	0.0037384033	
1740732072543	0.009689331	
1740732072544	0.015945435	
1740732072545	0.01373291	
1740732072546	0.006866455	
1740732072547	-6.1035156E-4	
1740732072548	-0.019454956	
1740732072549	-0.023651123	
1740732072550	-0.01739502	
1740732072551	-0.020751953	
1740732072552	-0.022506714	
1740732072553	-0.019378662	
1740732072554	-0.018844604	
1740732072555	-0.02494812	
1740732072556	-0.02067566	
1740732072557	-6.1035156E-4	
1740732072558	0.009918213	
1740732072559	0.02281189	
1740732072560	0.041503906	
1740732072561	0.0390625	
1740732072562	-0.00579834	
1740732072563	-0.042419434	
1740732072564	-0.018920898	
1740732072565	-0.0062561035	
1740732072566	-0.0019073486	
1740732072567	0.025024414	
1740732072568	0.03303528	
1740732072569	0.013885498	
1740732072570	-0.013961792	
1740732072571	-0.013580322	
1740732072572	-0.010070801	
1740732072573	-0.017547607	
1740732072574	0.00793457	
1740732072575	0.034713745	
1740732072576	0.03387451	
1740732072577	0.005340576	
1740732072578	-0.018081665	
1740732072579	-0.0090789795	
1740732072580	-0.008850098	
1740732072581	-0.018920898	
1740732072582	-0.038909912	
1740732072583	-0.045013428	
1740732072584	-0.00793457	
1740732072585	0.018005371	
1740732072586	0.018005371	
1740732072587	0.02532959	
1740732072588	0.019836426	
1740732072589	-0.0012207031	
1740732072590	-0.008850098	
1740732072591	-0.013885498	
1740732072592	-0.0077056885	
1740732072593	0.006866455	
1740732072594	0.00831604	
1740732072595	0.0049591064	
1740732072596	0.004272461	
1740732072597	0.009918213	
1740732072598	0.009536743	
1740732072599	0.003967285	
1740732072600	0.0045776367	
1740732072601	0.0050354004	
1740732072602	0.0036621094	
1740732072603	-0.00289917	
1740732072604	-0.007095337	
1740732072605	-0.005874634	
1740732072606	-0.0049591064	
1740732072607	-0.0025177002	
1740732072608	-0.005722046	
1740732072609	-0.0051116943	
1740732072610	0.0025939941	
1740732072611	0.0033569336	
1740732072612	0.0051879883	
1740732072613	0.0061035156	
1740732072614	-0.004272461	
1740732072615	-0.006790161	
1740732072616	-0.0034332275	
1740732072617	-0.009231567	
1740732072618	-0.004119873	
1740732072619	0.0019836426	
1740732072620	-0.0018310547	
1740732072621	0.0015258789	
1740732072622	9.1552734E-4	
1740732072623	0.0025939941	
1740732072624	0.004196167	
1740732072625	0.0051879883	
1740732072626	0.009155273	
1740732072627	0.0030517578	
1740732072628	8.392334E-4	
1740732072629	5.340576E-4	
1740732072630	-0.0011444092	
1740732072631	-0.013580322	
1740732072632	-0.018615723	
1740732072633	2.2888184E-4	
1740732072634	0.0063323975	
1740732072635	0.006713867	
1740732072636	7.6293945E-4	
1740732072637	-0.0048828125	
1740732072638	0.005722046	
1740732072639	0.004348755	
1740732072640	4.5776367E-4	
1740732072641	9.918213E-4	
1740732072642	0.004043579	
1740732072643	0.013198853	
1740732072644	0.0020599365	
1740732072645	-0.0074005127	
1740732072646	0.0016021729	
1740732072647	-0.0033569336	
1740732072648	-0.017929077	
1740732072649	-0.024337769	
1740732072650	-0.02029419	
1740732072651	-0.0015258789	
1740732072652	0.012741089	
1740732072653	0.012054443	
1740732072654	0.0017547607	
1740732072655	0.0032043457	
1740732072656	0.015258789	
1740732072657	0.012664795	
1740732072658	0.010986328	
1740732072659	-0.0074005127	
1740732072660	-0.027694702	
1740732072661	-0.027770996	
1740732072662	-0.013809204	
1740732072663	0.006866455	
1740732072664	0.010757446	
1740732072665	0.051727295	
1740732072666	0.08331299	
1740732072667	0.039901733	
1740732072668	0.005340576	
1740732072669	-0.026016235	
1740732072670	-0.05882263	
1740732072671	-0.055618286	
1740732072672	-0.03135681	
1740732072673	-0.0059509277	
1740732072674	-0.006713867	
1740732072675	0.020370483	
1740732072676	0.06576538	
1740732072677	0.022888184	
1740732072678	-0.03593445	
1740732072679	-0.023727417	
1740732072680	-0.015411377	
1740732072681	-0.020904541	
1740732072682	-0.010375977	
1740732072683	-0.012817383	
1740732072684	-0.0035095215	
1740732072685	-0.0012207031	
1740732072686	-0.0132751465	
1740732072687	-0.0035858154	
1740732072688	0.0063323975	
1740732072689	0.0062561035	
1740732072690	-0.0048828125	
1740732072691	-0.010070801	
1740732072692	-0.0024414062	
1740732072693	0.0090789795	
1740732072694	0.020599365	
1740732072695	0.009460449	
1740732072696	-0.002822876	
1740732072697	8.392334E-4	
1740732072698	0.016174316	
1740732072699	0.03440857	
1740732072700	0.02670288	
1740732072701	0.0118255615	
1740732072702	0.0018310547	
1740732072703	-0.001449585	
1740732072704	0.008392334	
1740732072705	0.00289917	
1740732072706	-0.001373291	
1740732072707	-0.0020599365	
1740732072708	-0.01449585	
1740732072709	-0.01777649	
1740732072710	-0.01586914	
1740732072711	-0.013427734	
1740732072712	-0.0032806396	
1740732072713	0.00579834	
1740732072714	0.008239746	
1740732072715	0.011978149	
1740732072716	0.008773804	
1740732072717	-9.1552734E-4	
1740732072718	-0.0051116943	
1740732072719	-0.010757446	
1740732072720	-0.009994507	
1740732072721	8.392334E-4	
1740732072722	-0.0047302246	
1740732072723	-0.00869751	
1740732072724	-0.00793457	
1740732072725	-0.009765625	
1740732072726	-0.01121521	
1740732072727	-0.00793457	
1740732072728	1.5258789E-4	
1740732072729	0.0015258789	
1740732072730	0.0017547607	
1740732072731	0.004501343	
1740732072732	0.0061035156	
1740732072733	0.0074005127	
1740732072734	0.0038146973	
1740732072735	-0.0024414062	
1740732072736	6.1035156E-4	
1740732072737	2.2888184E-4	
1740732072738	0.0032043457	
1740732072739	0.008392334	
1740732072740	0.0031280518	
1740732072741	0.0021362305	
1740732072742	0.0018310547	
1740732072743	-0.005645752	
1740732072744	-0.011138916	
1740732072745	-0.019989014	
1740732072746	-0.019454956	
1740732072747	0.008544922	
1740732072748	0.043792725	
1740732072749	0.025634766	
1740732072750	-0.023040771	
1740732072751	-0.029525757	
1740732072752	-0.057678223	
1740732072753	-0.043563843	
1740732072754	0.055618286	
1740732072755	0.11375427	
1740732072756	0.12336731	
1740732072757	0.09437561	
1740732072758	0.02067566	
1740732072759	-0.049438477	
1740732072760	-0.07255554	
1740732072761	-0.055999756	
1740732072762	-0.057144165	
1740732072763	-0.058135986	
1740732072764	-0.038986206	
1740732072765	-0.028381348	
1740732072766	-0.018005371	
1740732072767	0.013122559	
1740732072768	0.048980713	
1740732072769	0.042114258	
1740732072770	0.004348755	
1740732072771	-0.027008057	
1740732072772	-0.043563843	
1740732072773	-0.02281189	
1740732072774	0.003967285	
1740732072775	0.022659302	
1740732072776	0.017623901	
1740732072777	-0.022354126	
1740732072778	-0.004043579	
1740732072779	0.022888184	
1740732072780	0.0064086914	
1740732072781	0.0073242188	
1740732072782	0.0020599365	
1740732072783	-0.0033569336	
1740732072784	-0.0060272217	
1740732072785	-0.012130737	
1740732072786	-0.0025939941	
1740732072787	7.6293945E-5	
1740732072788	-0.002746582	
1740732072789	2.2888184E-4	
1740732072790	0.0025177002	
1740732072791	-2.2888184E-4	
1740732072792	0.0034332275	
1740732072793	0.010375977	
1740732072794	0.012283325	
1740732072795	0.0118255615	
1740732072796	0.0077056885	
1740732072797	0.010147095	
1740732072798	0.01373291	
1740732072799	0.007858276	
1740732072800	0.014190674	
1740732072801	0.033798218	
1740732072802	0.029678345	
1740732072803	0.007171631	
1740732072804	-0.012893677	
1740732072805	-0.033493042	
1740732072806	-0.036621094	
1740732072807	-0.022964478	
1740732072808	-0.0073242188	
1740732072809	0.0075531006	
1740732072810	-0.0034332275	
1740732072811	-0.02357483	
1740732072812	-0.021438599	
1740732072813	-0.0025939941	
1740732072814	0.012283325	
1740732072815	0.026473999	
1740732072816	0.041809082	
1740732072817	0.03578186	
1740732072818	0.014190674	
1740732072819	0.01335144	
1740732072820	0.0104522705	
1740732072821	-0.019302368	
1740732072822	-0.033950806	
1740732072823	-0.03425598	
1740732072824	-0.039138794	
1740732072825	-0.036468506	
1740732072826	-0.03715515	
1740732072827	-0.046157837	
1740732072828	-0.042495728	
1740732072829	-0.0036621094	
1740732072830	0.0060272217	
1740732072831	-0.033493042	
1740732072832	-0.005645752	
1740732072833	0.05432129	
1740732072834	0.0743103	
1740732072835	0.08354187	
1740732072836	0.083999634	
1740732072837	0.09780884	
1740732072838	0.052719116	
1740732072839	-0.024032593	
1740732072840	-0.0077056885	
1740732072841	-0.007858276	
1740732072842	-0.041122437	
1740732072843	-0.045776367	
1740732072844	-0.06484985	
1740732072845	-0.06477356	
1740732072846	-0.044403076	
1740732072847	-0.037841797	
1740732072848	-0.022583008	
1740732072849	-0.004348755	
1740732072850	-0.0049591064	
1740732072851	0.0045776367	
1740732072852	0.024871826	
1740732072853	0.019760132	
1740732072854	0.007247925	
1740732072855	0.0077056885	
1740732072856	0.003967285	
1740732072857	-0.009689331	
1740732072858	-0.009765625	
1740732072859	0.0075531006	
1740732072860	0.013885498	
1740732072861	-0.005722046	
1740732072862	-0.019989014	
1740732072863	0.016860962	
1740732072864	0.047454834	
1740732072865	0.042266846	
1740732072866	0.036087036	
1740732072867	0.015411377	
1740732072868	0.003967285	
1740732072869	3.0517578E-4	
1740732072870	0.0062561035	
1740732072871	0.03227234	
1740732072872	0.017929077	
1740732072873	-0.0146484375	
1740732072874	-0.031967163	
1740732072875	-0.04951477	
1740732072876	-0.039749146	
1740732072877	-0.008621216	
1740732072878	0.008163452	
1740732072879	0.0036621094	
1740732072880	0.0022125244	
1740732072881	0.0048065186	
1740732072882	-0.021896362	
1740732072883	-0.045394897	
1740732072884	-0.030593872	
1740732072885	-0.01586914	
1740732072886	0.0023651123	
1740732072887	0.023269653	
1740732072888	0.027618408	
1740732072889	0.046463013	
1740732072890	0.073776245	
1740732072891	0.077056885	
1740732072892	0.028152466	
1740732072893	-0.06340027	
1740732072894	-0.11619568	
1740732072895	-0.081329346	
1740732072896	-0.03791809	
1740732072897	-0.04219055	
1740732072898	-0.03250122	
1740732072899	0.013961792	
1740732072900	0.025100708	
1740732072901	-6.1035156E-4	
1740732072902	0.008163452	
1740732072903	0.05744934	
1740732072904	0.1348877	
1740732072905	0.14633179	
1740732072906	0.072631836	
1740732072907	0.026931763	
1740732072908	-0.014877319	
1740732072909	-0.06843567	
1740732072910	-0.053634644	
1740732072911	-0.009613037	
1740732072912	-0.00793457	
1740732072913	-0.028457642	
1740732072914	-0.012512207	
1740732072915	0.00579834	
1740732072916	-0.034713745	
1740732072917	-0.053329468	
1740732072918	-0.035705566	
1740732072919	-0.050201416	
1740732072920	-0.056381226	
1740732072921	-0.038604736	
1740732072922	-0.025405884	
1740732072923	-0.008544922	
1740732072924	-0.0035095215	
1740732072925	-0.011444092	
1740732072926	-0.014419556	
1740732072927	-0.007247925	
1740732072928	0.008392334	
1740732072929	0.016784668	
1740732072930	0.022125244	
1740732072931	0.029907227	
1740732072932	0.031280518	
1740732072933	0.031967163	
1740732072934	0.04043579	
1740732072935	0.04852295	
1740732072936	0.04425049	
1740732072937	0.03578186	
1740732072938	0.023269653	
1740732072939	0.010528564	
1740732072940	0.013580322	
1740732072941	0.01777649	
1740732072942	0.0090789795	
1740732072943	-0.013122559	
1740732072944	-0.011749268	
1740732072945	3.8146973E-4	
1740732072946	-0.017242432	
1740732072947	-0.029907227	
1740732072948	-0.014572144	
1740732072949	0.015258789	
1740732072950	0.021896362	
1740732072951	0.007858276	
1740732072952	0.011367798	
1740732072953	0.002670288	
1740732072954	-0.017700195	
1740732072955	-0.02357483	
1740732072956	-0.026931763	
1740732072957	-0.054473877	
1740732072958	-0.07606506	
1740732072959	-0.043563843	
1740732072960	-0.037231445	
1740732072961	-0.084609985	
1740732072962	-0.07904053	
1740732072963	0.010070801	
1740732072964	0.088272095	
1740732072965	0.06286621	
1740732072966	0.058517456	
1740732072967	0.12512207	
1740732072968	0.11566162	
1740732072969	0.07080078	
1740732072970	0.049743652	
1740732072971	0.04096985	
1740732072972	0.01159668	
1740732072973	-0.044784546	
1740732072974	-0.05493164	
1740732072975	-0.06462097	
1740732072976	-0.08041382	
1740732072977	-0.07362366	
1740732072978	-0.0769043	
1740732072979	-0.06210327	
1740732072980	-0.0415802	
1740732072981	-0.023040771	
1740732072982	0.0030517578	
1740732072983	0.011291504	
1740732072984	0.0064086914	
1740732072985	-0.0045776367	
1740732072986	-0.008850098	
1740732072987	0.0012207031	
1740732072988	0.004348755	
1740732072989	-0.0025939941	
1740732072990	0.020446777	
1740732072991	0.04890442	
1740732072992	0.039138794	
1740732072993	0.025482178	
1740732072994	0.028686523	
1740732072995	0.04508972	
1740732072996	0.060806274	
1740732072997	0.043945312	
1740732072998	0.02029419	
1740732072999	0.009002686	
1740732073000	-8.392334E-4	
1740732073001	7.6293945E-5	
1740732073002	3.8146973E-4	
1740732073003	-0.0010681152	
1740732073004	0.0031280518	
1740732073005	-0.015945435	
1740732073006	-0.057373047	
1740732073007	-0.074157715	
1740732073008	-0.055236816	
1740732073009	-0.032958984	
1740732073010	-0.01876831	
1740732073011	-0.0025939941	
1740732073012	-0.0016784668	
1740732073013	-0.058288574	
1740732073014	-0.12084961	
1740732073015	-0.10360718	
1740732073016	-0.0038909912	
1740732073017	0.09613037	
1740732073018	0.15136719	
1740732073019	0.23338318	
1740732073020	0.2696228	
1740732073021	0.20477295	
1740732073022	0.10307312	
1740732073023	0.03753662	
1740732073024	-0.05279541	
1740732073025	-0.13969421	
1740732073026	-0.11604309	
1740732073027	-0.109939575	
1740732073028	-0.13160706	
1740732073029	-0.11306763	
1740732073030	-0.09742737	
1740732073031	-0.07324219	
1740732073032	-0.07774353	
1740732073033	-0.06729126	
1740732073034	0.015563965	
1740732073035	-0.004119873	
1740732073036	-0.11909485	
1740732073037	-0.12214661	
1740732073038	-0.061264038	
1740732073039	-0.03326416	
1740732073040	0.034561157	
1740732073041	0.104599	
1740732073042	0.09529114	
1740732073043	0.07209778	
1740732073044	0.07766724	
1740732073045	0.104599	
1740732073046	0.12321472	
1740732073047	0.09628296	
1740732073048	0.06813049	
1740732073049	0.051498413	
1740732073050	0.03303528	
1740732073051	0.03250122	
1740732073052	0.010223389	
1740732073053	-0.03829956	
1740732073054	-0.082855225	
1740732073055	-0.09536743	
1740732073056	-0.09391785	
1740732073057	-0.056915283	
1740732073058	0.02822876	
1740732073059	0.04951477	
1740732073060	0.06187439	
1740732073061	0.09361267	
1740732073062	0.053710938	
1740732073063	-0.001373291	
1740732073064	-0.03463745	
1740732073065	-0.051879883	
1740732073066	-0.04310608	
1740732073067	-0.026168823	
1740732073068	-0.02128601	
1740732073069	-0.036239624	
1740732073070	-0.037841797	
1740732073071	-0.029907227	
1740732073072	-0.029296875	
1740732073073	-0.03074646	
1740732073074	-0.02784729	
1740732073075	-0.006790161	
1740732073076	-0.004272461	
1740732073077	-0.010604858	
1740732073078	0.0018310547	
1740732073079	0.006866455	
1740732073080	0.008850098	
1740732073081	0.015335083	
1740732073082	0.019226074	
1740732073083	0.00831604	
1740732073084	0.013046265	
1740732073085	0.030059814	
1740732073086	0.032043457	
1740732073087	0.029907227	
1740732073088	0.021209717	
1740732073089	0.020065308	
1740732073090	0.0077819824	
1740732073091	-0.0029754639	
1740732073092	0.001449585	
1740732073093	-0.016860962	
1740732073094	-0.012054443	
1740732073095	0.0016784668	
1740732073096	-0.0035858154	
1740732073097	0.017166138	
1740732073098	0.020599365	
1740732073099	-0.001373291	
1740732073100	-0.0061798096	
1740732073101	-0.009841919	
1740732073102	-0.013427734	
1740732073103	-0.008926392	
1740732073104	-5.340576E-4	
1740732073105	0.003967285	
1740732073106	0.0035858154	
1740732073107	0.0063323975	
1740732073108	-0.012512207	
1740732073109	-0.020065308	
1740732073110	-0.014724731	
1740732073111	-0.017166138	
1740732073112	-0.009994507	
1740732073113	-0.008087158	
1740732073114	-0.012359619	
1740732073115	-0.009307861	
1740732073116	-0.0036621094	
1740732073117	-0.0012969971	
1740732073118	0.0074768066	
1740732073119	0.011444092	
1740732073120	0.0021362305	
1740732073121	0.0075531006	
1740732073122	0.01335144	
1740732073123	0.009536743	
1740732073124	0.014190674	
1740732073125	0.010604858	
1740732073126	0.003967285	
1740732073127	7.6293945E-5	
1740732073128	-0.0062561035	
1740732073129	-0.0061798096	
1740732073130	-0.013198853	
1740732073131	-0.017166138	
1740732073132	-0.0059509277	
1740732073133	0.0104522705	
1740732073134	0.012969971	
1740732073135	0.0035095215	
1740732073136	0.0029754639	
1740732073137	-0.0016784668	
1740732073138	-0.013809204	
1740732073139	-0.010681152	
1740732073140	0.0023651123	
1740732073141	0.01838684	
1740732073142	0.02822876	
1740732073143	0.023727417	
1740732073144	0.010604858	
1740732073145	-0.011291504	
1740732073146	-0.03578186	
1740732073147	-0.03074646	
1740732073148	-0.0036621094	
1740732073149	0.00289917	
1740732073150	0.0030517578	
1740732073151	0.027008057	
1740732073152	0.042877197	
1740732073153	0.015182495	
1740732073154	-0.015945435	
1740732073155	-0.020370483	
1740732073156	-0.024795532	
1740732073157	-0.020980835	
1740732073158	-0.009918213	
1740732073159	0.007247925	
1740732073160	0.018310547	
1740732073161	-0.0046539307	
1740732073162	-0.013580322	
1740732073163	-0.002746582	
1740732073164	-0.0031280518	
1740732073165	6.1035156E-4	
1740732073166	0.008544922	
1740732073167	0.0048065186	
1740732073168	0.004043579	
1740732073169	0.006942749	
1740732073170	-6.1035156E-4	
1740732073171	-0.02067566	
1740732073172	-0.028152466	
1740732073173	-0.0047302246	
1740732073174	0.004501343	
1740732073175	0.004501343	
1740732073176	0.009765625	
1740732073177	-9.918213E-4	
1740732073178	5.340576E-4	
1740732073179	0.002746582	
1740732073180	4.5776367E-4	
1740732073181	0.006866455	
1740732073182	0.005569458	
1740732073183	0.005340576	
1740732073184	0.0046539307	
1740732073185	0.0074768066	
1740732073186	0.011062622	
1740732073187	0.005569458	
1740732073188	-0.0045776367	
1740732073189	-0.0050354004	
1740732073190	0.011444092	
1740732073191	0.013046265	
1740732073192	-0.0037384033	
1740732073193	-0.02067566	
1740732073194	-0.025253296	
1740732073195	-0.0049591064	
1740732073196	0.0046539307	
1740732073197	0.0051879883	
1740732073198	0.01335144	
1740732073199	0.008544922	
1740732073200	0.0035095215	
1740732073201	0.004425049	
1740732073202	-7.6293945E-4	
1740732073203	-0.0048828125	
1740732073204	-0.005569458	
1740732073205	-0.007858276	
1740732073206	-0.018310547	
1740732073207	-0.021896362	
1740732073208	0.0019073486	
1740732073209	0.0104522705	
1740732073210	-0.015335083	
1740732073211	-0.036849976	
1740732073212	-0.016326904	
1740732073213	0.013504028	
1740732073214	-0.011749268	
1740732073215	-0.043029785	
1740732073216	-0.037994385	
1740732073217	0.0060272217	
1740732073218	0.11802673	
1740732073219	0.2029419	
1740732073220	0.16326904	
1740732073221	-0.0037384033	
1740732073222	-0.12123108	
1740732073223	-0.12435913	
1740732073224	-0.11917114	
1740732073225	0.0025939941	
1740732073226	0.1096344	
1740732073227	0.073776245	
1740732073228	0.049057007	
1740732073229	-0.04966736	
1740732073230	-0.100860596	
1740732073231	-2.2888184E-4	
1740732073232	0.024414062	
1740732073233	0.0064086914	
1740732073234	0.011978149	
1740732073235	0.030212402	
1740732073236	0.013580322	
1740732073237	-0.061798096	
1740732073238	-0.07888794	
1740732073239	-0.055541992	
1740732073240	-0.06355286	
1740732073241	-0.065460205	
1740732073242	-0.018234253	
1740732073243	0.023422241	
1740732073244	0.044021606	
1740732073245	0.04310608	
1740732073246	-0.0076293945	
1740732073247	-0.023956299	
1740732073248	-0.019760132	
1740732073249	-0.028457642	
1740732073250	-0.008239746	
1740732073251	0.010986328	
1740732073252	0.025787354	
1740732073253	0.054397583	
1740732073254	0.05630493	
1740732073255	0.008926392	
1740732073256	-0.022659302	
1740732073257	-0.017318726	
1740732073258	-0.0031280518	
1740732073259	0.022506714	
1740732073260	0.037078857	
1740732073261	0.049743652	
1740732073262	0.053863525	
1740732073263	0.031204224	
1740732073264	0.018539429	
1740732073265	0.013809204	
1740732073266	0.011978149	
1740732073267	0.0023651123	
1740732073268	-0.009918213	
1740732073269	-0.008087158	
1740732073270	-0.018844604	
1740732073271	-0.019607544	
1740732073272	-0.013504028	
1740732073273	-0.017547607	
1740732073274	-0.011367798	
1740732073275	-0.009002686	
1740732073276	-0.004043579	
1740732073277	0.009307861	
1740732073278	0.009231567	
1740732073279	-0.013580322	
1740732073280	-0.05142212	
1740732073281	-0.081329346	
1740732073282	-0.070114136	
1740732073283	-0.027160645	
1740732073284	0.020523071	
1740732073285	0.06561279	
1740732073286	0.06416321	
1740732073287	-0.013122559	
1740732073288	-0.03616333	
1740732073289	0.04837036	
1740732073290	0.06248474	
1740732073291	0.018692017	
1740732073292	0.008087158	
1740732073293	-0.015258789	
1740732073294	-0.016403198	
1740732073295	-0.0035858154	
1740732073296	-0.013504028	
1740732073297	-0.012130737	
1740732073298	-0.0118255615	
1740732073299	-0.018310547	
1740732073300	-0.019607544	
1740732073301	-0.010910034	
1740732073302	0.009155273	
1740732073303	0.006942749	
1740732073304	0.001373291	
1740732073305	0.002670288	
1740732073306	-0.005264282	
1740732073307	-0.0022888184	
1740732073308	0.0019073486	
1740732073309	0.0024414062	
1740732073310	3.0517578E-4	
1740732073311	-0.008773804	
1740732073312	-0.0024414062	
1740732073313	0.0033569336	
1740732073314	0.0073242188	
1740732073315	0.006713867	
1740732073316	0.001449585	
1740732073317	0.005569458	
1740732073318	0.0019073486	
1740732073319	0.004425049	
1740732073320	0.008468628	
1740732073321	-0.0060272217	
1740732073322	-0.007858276	
1740732073323	-0.009765625	
1740732073324	-0.02357483	
1740732073325	-0.022277832	
1740732073326	-0.009994507	
1740732073327	0.0036621094	
1740732073328	0.014724731	
1740732073329	0.010375977	
1740732073330	0.02281189	
1740732073331	0.06645203	
1740732073332	0.081100464	
1740732073333	0.08155823	
1740732073334	0.079422	
1740732073335	0.03479004	
1740732073336	-0.04425049	
1740732073337	-0.072631836	
1740732073338	-0.046691895	
1740732073339	-0.055999756	
1740732073340	-0.050354004	
1740732073341	-0.023651123	
1740732073342	-0.04272461	
1740732073343	-0.04623413	
1740732073344	-0.028381348	
1740732073345	-0.029144287	
1740732073346	-0.02067566	
1740732073347	-0.012588501	
1740732073348	-0.0074005127	
1740732073349	0.0038909912	
1740732073350	0.009307861	
1740732073351	0.012435913	
1740732073352	0.011672974	
1740732073353	0.0104522705	
1740732073354	0.016174316	
1740732073355	0.01991272	
1740732073356	0.018234253	
1740732073357	0.017318726	
1740732073358	0.015258789	
1740732073359	0.012893677	
1740732073360	0.02029419	
1740732073361	0.022125244	
1740732073362	0.01159668	
1740732073363	0.009994507	
1740732073364	0.0090789795	
1740732073365	0.008544922	
1740732073366	0.008010864	
1740732073367	0.002670288	
1740732073368	3.8146973E-4	
1740732073369	9.1552734E-4	
1740732073370	0.0051879883	
1740732073371	-0.004348755	
1740732073372	-0.022888184	
1740732073373	-0.027618408	
1740732073374	-0.01914978	
1740732073375	-0.001449585	
1740732073376	0.0030517578	
1740732073377	-0.0038146973	
1740732073378	-0.0030517578	
1740732073379	-0.004501343	
1740732073380	-0.004501343	
1740732073381	-0.0012969971	
1740732073382	-0.014877319	
1740732073383	-0.028457642	
1740732073384	-0.024108887	
1740732073385	-0.034713745	
1740732073386	-0.07324219	
1740732073387	-0.051498413	
1740732073388	0.047073364	
1740732073389	0.11947632	
1740732073390	0.16212463	
1740732073391	0.10002136	
1740732073392	0.0038146973	
1740732073393	0.07064819	
1740732073394	0.064086914	
1740732073395	-0.0756073	
1740732073396	-0.068740845	
1740732073397	-0.02456665	
1740732073398	-0.055541992	
1740732073399	-0.077056885	
1740732073400	-0.09689331	
1740732073401	-0.079956055	
1740732073402	-0.0065612793	
1740732073403	-0.0046539307	
1740732073404	-0.08972168	
1740732073405	-0.0024414062	
1740732073406	0.106658936	
1740732073407	-0.045013428	
1740732073408	-0.0818634	
1740732073409	0.12588501	
1740732073410	0.24803162	
1740732073411	0.07827759	
1740732073412	-0.12275696	
1740732073413	-0.038146973	
1740732073414	0.05569458	
1740732073415	0.051879883	
1740732073416	-0.03982544	
1740732073417	-0.14907837	
1740732073418	-0.10551453	
1740732073419	-0.03555298	
1740732073420	0.0010681152	
1740732073421	-0.011749268	
1740732073422	0.0062561035	
1740732073423	0.08560181	
1740732073424	0.080566406	
1740732073425	-0.0035095215	
1740732073426	-0.09353638	
1740732073427	-0.10635376	
1740732073428	-0.06851196	
1740732073429	-0.07400513	
1740732073430	0.028152466	
1740732073431	0.26123047	
1740732073432	0.36460876	
1740732073433	0.22590637	
1740732073434	0.075149536	
1740732073435	0.026931763	
1740732073436	-0.025863647	
1740732073437	-0.067214966	
1740732073438	-0.069885254	
1740732073439	-0.081710815	
1740732073440	-0.09017944	
1740732073441	-0.08377075	
1740732073442	-0.08224487	
1740732073443	-0.079193115	
1740732073444	-0.068740845	
1740732073445	-0.058441162	
1740732073446	-0.054473877	
1740732073447	-0.050811768	
1740732073448	-0.047454834	
1740732073449	-0.04234314	
1740732073450	-0.020904541	
1740732073451	-0.017700195	
1740732073452	-0.027618408	
1740732073453	-0.0051116943	
1740732073454	0.018844604	
1740732073455	0.024261475	
1740732073456	0.027923584	
1740732073457	0.019607544	
1740732073458	-0.0077056885	
1740732073459	-0.029830933	
1740732073460	-0.027160645	
1740732073461	0.055007935	
1740732073462	0.22125244	
1740732073463	0.2607727	
1740732073464	0.12886047	
1740732073465	0.03868103	
1740732073466	0.019760132	
1740732073467	-0.018310547	
1740732073468	-0.03868103	
1740732073469	-0.029144287	
1740732073470	-0.04058838	
1740732073471	-0.027236938	
1740732073472	-0.010757446	
1740732073473	-0.06011963	
1740732073474	-0.101242065	
1740732073475	0.07888794	
1740732073476	0.31684875	
1740732073477	0.2318573	
1740732073478	-0.0060272217	
1740732073479	-0.14083862	
1740732073480	-0.18913269	
1740732073481	-0.18699646	
1740732073482	-0.13153076	
1740732073483	-0.0019836426	
1740732073484	0.022354126	
1740732073485	-0.13298035	
1740732073486	-0.24986267	
1740732073487	-0.20721436	
1740732073488	-0.06210327	
1740732073489	0.061035156	
1740732073490	0.023651123	
1740732073491	-0.09033203	
1740732073492	-0.06828308	
1740732073493	-0.041046143	
1740732073494	-0.018539429	
1740732073495	0.088272095	
1740732073496	0.12321472	
1740732073497	0.14411926	
1740732073498	0.185318	
1740732073499	0.14656067	
1740732073500	0.107803345	
1740732073501	0.07911682	
1740732073502	0.055007935	
1740732073503	0.056915283	
1740732073504	0.056915283	
1740732073505	0.038986206	
1740732073506	-0.0011444092	
1740732073507	-0.023498535	
1740732073508	-0.025024414	
1740732073509	-0.020751953	
1740732073510	-0.01586914	
1740732073511	-0.02532959	
1740732073512	-0.028152466	
1740732073513	-0.03211975	
1740732073514	-0.04295349	
1740732073515	-0.04585266	
1740732073516	-0.04371643	
1740732073517	-0.026016235	
1740732073518	-0.04219055	
1740732073519	-0.063323975	
1740732073520	-0.03517151	
1740732073521	-0.02319336	
1740732073522	0.021057129	
1740732073523	0.062026978	
1740732073524	-0.013809204	
1740732073525	-0.102386475	
1740732073526	-0.0995636	
1740732073527	-0.020828247	
1740732073528	0.09635925	
1740732073529	0.15708923	
1740732073530	0.1612091	
1740732073531	0.13633728	
1740732073532	0.02357483	
1740732073533	-0.051116943	
1740732073534	-0.0051879883	
1740732073535	0.08041382	
1740732073536	0.12107849	
1740732073537	0.10231018	
1740732073538	0.008468628	
1740732073539	-0.17951965	
1740732073540	-0.28625488	
1740732073541	-0.21781921	
1740732073542	-0.049362183	
1740732073543	0.04776001	
1740732073544	0.0119018555	
1740732073545	-0.008850098	
1740732073546	-0.02861023	
1740732073547	-0.06484985	
1740732073548	-0.03364563	
1740732073549	0.012435913	
1740732073550	-0.033187866	
1740732073551	-0.09597778	
1740732073552	-0.027999878	
1740732073553	0.020904541	
1740732073554	-0.06599426	
1740732073555	-0.083847046	
1740732073556	0.027770996	
1740732073557	0.11009216	
1740732073558	0.1348114	
1740732073559	0.1990509	
1740732073560	0.2596283	
1740732073561	0.20507812	
1740732073562	0.1424408	
1740732073563	0.17204285	
1740732073564	0.13259888	
1740732073565	-0.049362183	
1740732073566	-0.20713806	
1740732073567	-0.17456055	
1740732073568	-0.103149414	
1740732073569	-0.108566284	
1740732073570	-0.019226074	
1740732073571	0.013427734	
1740732073572	-0.08888245	
1740732073573	-0.14831543	
1740732073574	-0.18875122	
1740732073575	-0.17814636	
1740732073576	-0.084609985	
1740732073577	-0.02166748	
1740732073578	0.00869751	
1740732073579	0.0016784668	
1740732073580	-0.056381226	
1740732073581	-0.03730774	
1740732073582	0.040359497	
1740732073583	0.059509277	
1740732073584	0.11993408	
1740732073585	0.19958496	
1740732073586	0.1789093	
1740732073587	0.09307861	
1740732073588	0.0010681152	
1740732073589	-0.047302246	
1740732073590	-0.06591797	
1740732073591	0.011291504	
1740732073592	0.1499176	
1740732073593	0.17578125	
1740732073594	0.16433716	
1740732073595	0.11268616	
1740732073596	0.020751953	
1740732073597	0.0063323975	
1740732073598	-0.044708252	
1740732073599	-0.102005005	
1740732073600	-0.11932373	
1740732073601	-0.09849548	
1740732073602	-0.03967285	
1740732073603	-0.03036499	
1740732073604	-0.025634766	
1740732073605	-0.058135986	
1740732073606	-0.086135864	
1740732073607	-0.07080078	
1740732073608	-0.096206665	
1740732073609	-0.0920105	
1740732073610	-0.08560181	
1740732073611	-0.094070435	
1740732073612	-0.10696411	
1740732073613	-0.1410675	
1740732073614	-0.07133484	
1740732073615	0.05783081	
1740732073616	0.17349243	
1740732073617	0.28686523	
1740732073618	0.24383545	
1740732073619	0.08544922	
1740732073620	0.0025177002	
1740732073621	-0.01335144	
1740732073622	-0.029830933	
1740732073623	-0.061416626	
1740732073624	-0.05836487	
1740732073625	0.0016021729	
1740732073626	0.08895874	
1740732073627	0.15235901	
1740732073628	0.13725281	
1740732073629	0.078201294	
1740732073630	0.02319336	
1740732073631	-0.03250122	
1740732073632	-0.061035156	
1740732073633	-0.08857727	
1740732073634	-0.10070801	
1740732073635	-0.066223145	
1740732073636	-0.050125122	
1740732073637	-0.061035156	
1740732073638	-0.072021484	
1740732073639	-0.054473877	
1740732073640	-0.008392334	
1740732073641	-0.0034332275	
1740732073642	-0.03425598	
1740732073643	0.0060272217	
1740732073644	0.048217773	
1740732073645	-0.009155273	
1740732073646	-0.03883362	
1740732073647	-0.04058838	
1740732073648	-0.079422	
1740732073649	-0.094070435	
1740732073650	-0.09361267	
1740732073651	0.025405884	
1740732073652	0.184021	
1740732073653	0.21606445	
1740732073654	0.32051086	
1740732073655	0.28862	
1740732073656	0.025863647	
1740732073657	-0.03074646	
1740732073658	0.00793457	
1740732073659	-0.042419434	
1740732073660	-0.06713867	
1740732073661	-0.09971619	
1740732073662	-0.13282776	
1740732073663	-0.14656067	
1740732073664	-0.12992859	
1740732073665	-0.09109497	
1740732073666	-0.08621216	
1740732073667	-0.04776001	
1740732073668	0.0029754639	
1740732073669	0.034332275	
1740732073670	0.05607605	
1740732073671	0.022125244	
1740732073672	0.014190674	
1740732073673	0.02456665	
1740732073674	0.0061035156	
1740732073675	-0.0415802	
1740732073676	-0.08895874	
1740732073677	-0.06828308	
1740732073678	-0.066604614	
1740732073679	-0.023727417	
1740732073680	0.14221191	
1740732073681	0.28320312	
1740732073682	0.34988403	
1740732073683	0.27503967	
1740732073684	0.060272217	
1740732073685	-0.10055542	
1740732073686	-0.14015198	
1740732073687	-0.14015198	
1740732073688	-0.104522705	
1740732073689	-0.11505127	
1740732073690	-0.10848999	
1740732073691	-0.011138916	
1740732073692	0.009002686	
1740732073693	0.008468628	
1740732073694	0.04966736	
1740732073695	0.01876831	
1740732073696	-0.01663208	
1740732073697	-0.044784546	
1740732073698	-0.08293152	
1740732073699	-0.06851196	
1740732073700	-0.046844482	
1740732073701	-0.025939941	
1740732073702	0.0118255615	
1740732073703	0.03135681	
1740732073704	0.03845215	
1740732073705	0.05470276	
1740732073706	0.046310425	
1740732073707	0.0011444092	
1740732073708	-0.009918213	
1740732073709	0.0064086914	
1740732073710	0.0019836426	
1740732073711	-0.005722046	
1740732073712	-0.017242432	
1740732073713	-0.011444092	
1740732073714	0.004196167	
1740732073715	0.008239746	
1740732073716	0.016479492	
1740732073717	0.033111572	
1740732073718	0.03540039	
1740732073719	0.01159668	
1740732073720	0.008163452	
1740732073721	0.02456665	
1740732073722	0.024108887	
1740732073723	0.013046265	
1740732073724	0.0023651123	
1740732073725	-0.00831604	
1740732073726	-0.020141602	
1740732073727	-0.028839111	
1740732073728	-0.012512207	
1740732073729	6.866455E-4	
1740732073730	-0.023498535	
1740732073731	-0.009765625	
1740732073732	0.036468506	
1740732073733	0.0315094	
1740732073734	-0.03845215	
1740732073735	-0.13977051	
1740732073736	-0.19309998	
1740732073737	-0.13092041	
1740732073738	0.054855347	
1740732073739	0.2896881	
1740732073740	0.32951355	
1740732073741	0.21194458	
1740732073742	0.22789001	
1740732073743	0.17967224	
1740732073744	-0.09933472	
1740732073745	-0.35987854	
1740732073746	-0.2810669	
1740732073747	-0.012435913	
1740732073748	-0.09109497	
1740732073749	-0.25238037	
1740732073750	-0.16220093	
1740732073751	-0.033569336	
1740732073752	-0.08857727	
1740732073753	-0.18188477	
1740732073754	-0.004196167	
1740732073755	0.14053345	
1740732073756	0.14709473	
1740732073757	0.233078	
1740732073758	0.1815033	
1740732073759	-0.0642395	
1740732073760	0.06919861	
1740732073761	0.34225464	
1740732073762	0.08628845	
1740732073763	-0.07400513	
1740732073764	0.008468628	
1740732073765	-0.028381348	
1740732073766	0.009002686	
1740732073767	-0.01411438	
1740732073768	-0.05744934	
1740732073769	-0.021438599	
1740732073770	-0.06347656	
1740732073771	-0.0945282	
1740732073772	-0.07476807	
1740732073773	-0.100860596	
1740732073774	-0.16448975	
1740732073775	-0.081100464	
1740732073776	0.07133484	
1740732073777	0.08804321	
1740732073778	-0.08018494	
1740732073779	-0.254364	
1740732073780	-0.14442444	
1740732073781	-0.0554657	
1740732073782	0.062026978	
1740732073783	0.24414062	
1740732073784	0.21148682	
1740732073785	0.27694702	
1740732073786	0.14068604	
1740732073787	-0.06401062	
1740732073788	0.05531311	
1740732073789	-0.03730774	
1740732073790	-0.14419556	
1740732073791	-0.064468384	
1740732073792	-0.024871826	
1740732073793	0.028839111	
1740732073794	0.09490967	
1740732073795	0.16296387	
1740732073796	0.124435425	
1740732073797	0.03074646	
1740732073798	0.008850098	
1740732073799	-0.03173828	
1740732073800	-0.072631836	
1740732073801	-0.0818634	
1740732073802	-0.072631836	
1740732073803	-0.063705444	
1740732073804	-0.061035156	
1740732073805	-0.040740967	
1740732073806	-0.034866333	
1740732073807	-0.03387451	
1740732073808	-0.029830933	
1740732073809	-0.05645752	
1740732073810	-0.08735657	
1740732073811	-0.121154785	
1740732073812	-0.16700745	
1740732073813	-0.051574707	
1740732073814	0.21980286	
1740732073815	0.27824402	
1740732073816	0.22468567	
1740732073817	0.21209717	
1740732073818	0.110321045	
1740732073819	6.1035156E-4	
1740732073820	-0.07293701	
1740732073821	-0.053863525	
1740732073822	0.024642944	
1740732073823	0.045547485	
1740732073824	0.012893677	
1740732073825	-0.08239746	
1740732073826	-0.18051147	
1740732073827	-0.16571045	
1740732073828	-0.11154175	
1740732073829	-0.092315674	
1740732073830	-0.05256653	
1740732073831	-0.04837036	
1740732073832	-0.072021484	
1740732073833	-0.043563843	
1740732073834	-0.018920898	
1740732073835	-0.011444092	
1740732073836	0.008010864	
1740732073837	0.032043457	
1740732073838	0.0466156	
1740732073839	0.032196045	
1740732073840	0.0020599365	
1740732073841	-0.0061035156	
1740732073842	0.0018310547	
1740732073843	0.037765503	
1740732073844	0.10017395	
1740732073845	-0.06034851	
1740732073846	-0.15846252	
1740732073847	0.2468872	
1740732073848	0.34126282	
1740732073849	-0.0769043	
1740732073850	-0.15800476	
1740732073851	0.22483826	
1740732073852	0.5644226	
1740732073853	0.3907776	
1740732073854	0.1978302	
1740732073855	0.129776	
1740732073856	-0.19416809	
1740732073857	-0.3187561	
1740732073858	-0.2606964	
1740732073859	-0.24490356	
1740732073860	-0.26878357	
1740732073861	-0.38375854	
1740732073862	-0.32814026	
1740732073863	-0.14778137	
1740732073864	0.101623535	
1740732073865	0.11505127	
1740732073866	0.027160645	
1740732073867	0.283432	
1740732073868	0.14755249	
1740732073869	-0.10559082	
1740732073870	0.01586914	
1740732073871	0.043945312	
1740732073872	0.13908386	
1740732073873	0.006942749	
1740732073874	-0.24024963	
1740732073875	-0.0617218	
1740732073876	0.0062561035	
1740732073877	-0.03616333	
1740732073878	0.023345947	
1740732073879	-0.017242432	
1740732073880	-0.025482178	
1740732073881	0.044937134	
1740732073882	0.0579834	
1740732073883	-0.07644653	
1740732073884	-0.12802124	
1740732073885	-0.0064086914	
1740732073886	0.11444092	
1740732073887	0.20988464	
1740732073888	0.10467529	
1740732073889	-0.018234253	
1740732073890	0.076828	
1740732073891	0.12870789	
1740732073892	0.061645508	
1740732073893	-0.01777649	
1740732073894	-0.0032043457	
1740732073895	-9.1552734E-4	
1740732073896	-0.17021179	
1740732073897	-0.2671051	
1740732073898	-0.10139465	
1740732073899	0.10902405	
1740732073900	0.19226074	
1740732073901	0.08308411	
1740732073902	-0.03944397	
1740732073903	0.2002716	
1740732073904	0.36193848	
1740732073905	0.12664795	
1740732073906	-0.1412201	
1740732073907	-0.26550293	
1740732073908	-0.22125244	
1740732073909	-0.19493103	
1740732073910	-0.14274597	
1740732073911	-0.027999878	
1740732073912	-0.03303528	
1740732073913	-0.014343262	
1740732073914	-0.012283325	
1740732073915	-0.018997192	
1740732073916	0.16593933	
1740732073917	0.22399902	
1740732073918	0.08079529	
1740732073919	-0.038986206	
1740732073920	-0.08804321	
1740732073921	0.010910034	
1740732073922	0.06309509	
1740732073923	0.023269653	
1740732073924	-0.058898926	
1740732073925	-0.17959595	
1740732073926	-0.1750946	
1740732073927	-0.15327454	
1740732073928	-0.1411438	
1740732073929	-0.022583008	
1740732073930	0.1449585	
1740732073931	0.18913269	
1740732073932	0.12275696	
1740732073933	0.10696411	
1740732073934	0.12557983	
1740732073935	0.07293701	
1740732073936	0.019683838	
1740732073937	0.14816284	
1740732073938	0.23780823	
1740732073939	0.14968872	
1740732073940	-0.04951477	
1740732073941	-0.18196106	
1740732073942	-0.03929138	
1740732073943	4.5776367E-4	
1740732073944	-0.17822266	
1740732073945	-0.26062012	
1740732073946	-0.2117157	
1740732073947	-0.12580872	
1740732073948	-0.0667572	
1740732073949	-0.013885498	
1740732073950	-0.008163452	
1740732073951	-0.03753662	
1740732073952	-0.051574707	
1740732073953	-0.07476807	
1740732073954	-0.014419556	
1740732073955	0.0743103	
1740732073956	-0.08781433	
1740732073957	-0.3665924	
1740732073958	-0.14404297	
1740732073959	0.34713745	
1740732073960	0.47676086	
1740732073961	0.43945312	
1740732073962	0.33668518	
1740732073963	0.108795166	
1740732073964	-0.20347595	
1740732073965	-0.37879944	
1740732073966	-0.116882324	
1740732073967	0.42388916	
1740732073968	0.63591003	
1740732073969	0.38833618	
1740732073970	0.07614136	
1740732073971	-0.2609253	
1740732073972	-0.46524048	
1740732073973	-0.4850006	
1740732073974	-0.29655457	
1740732073975	-0.010223389	
1740732073976	-0.105285645	
1740732073977	-0.2419281	
1740732073978	-0.076675415	
1740732073979	0.0074768066	
1740732073980	0.019226074	
1740732073981	0.119018555	
1740732073982	0.21263123	
1740732073983	0.0819397	
1740732073984	-0.09841919	
1740732073985	-0.045928955	
1740732073986	-0.082855225	
1740732073987	0.027694702	
1740732073988	0.2835846	
1740732073989	0.22895813	
1740732073990	0.1347351	
1740732073991	-0.03807068	
1740732073992	-0.11672974	
1740732073993	-0.0856781	
1740732073994	-0.16044617	
1740732073995	-0.09422302	
1740732073996	-0.08201599	
1740732073997	-0.1259613	
1740732073998	0.00541687	
1740732073999	0.09315491	
1740732074000	0.03807068	
1740732074001	0.010375977	
1740732074002	0.061798096	
1740732074003	0.103302	
1740732074004	0.067214966	
1740732074005	0.015487671	
1740732074006	-0.028457642	
1740732074007	-0.04524231	
1740732074008	-0.032958984	
1740732074009	-0.12939453	
1740732074010	-0.15579224	
1740732074011	0.074920654	
1740732074012	0.19508362	
1740732074013	0.110702515	
1740732074014	0.04928589	
1740732074015	0.03211975	
1740732074016	0.034179688	
1740732074017	0.01121521	
1740732074018	-0.014266968	
1740732074019	-0.009002686	
1740732074020	-0.02067566	
1740732074021	-0.038375854	
1740732074022	-0.04371643	
1740732074023	-0.034866333	
1740732074024	-0.029067993	
1740732074025	-0.042800903	
1740732074026	-0.017089844	
1740732074027	0.087509155	
1740732074028	0.12809753	
1740732074029	0.050125122	
1740732074030	-0.049057007	
1740732074031	-0.19683838	
1740732074032	-0.24169922	
1740732074033	-0.12687683	
1740732074034	-0.065841675	
1740732074035	-0.0012969971	
1740732074036	0.081329346	
1740732074037	0.2016449	
1740732074038	0.08888245	
1740732074039	-0.2141571	
1740732074040	9.918213E-4	
1740732074041	0.1763916	
1740732074042	0.022659302	
1740732074043	0.10101318	
1740732074044	0.116882324	
1740732074045	0.06187439	
1740732074046	0.12947083	
1740732074047	0.2520752	
1740732074048	0.26496887	
1740732074049	0.13381958	
1740732074050	-0.094680786	
1740732074051	-0.31951904	
1740732074052	-0.2833557	
1740732074053	-0.2192688	
1740732074054	-0.14221191	
1740732074055	-0.104599	
1740732074056	-0.30418396	
1740732074057	-0.17082214	
1740732074058	0.09811401	
1740732074059	-0.056381226	
1740732074060	-0.10803223	
1740732074061	0.04234314	
1740732074062	0.16746521	
1740732074063	0.27145386	
1740732074064	0.102767944	
1740732074065	0.08079529	
1740732074066	0.28862	
1740732074067	0.10505676	
1740732074068	-0.2470398	
1740732074069	-0.129776	
1740732074070	0.2622223	
1740732074071	0.27488708	
1740732074072	-0.061645508	
1740732074073	-0.2758789	
1740732074074	-0.10719299	
1740732074075	0.13496399	
1740732074076	0.1599884	
1740732074077	-0.025024414	
1740732074078	-0.13969421	
1740732074079	-0.044784546	
1740732074080	-0.05996704	
1740732074081	-0.052719116	
1740732074082	9.1552734E-4	
1740732074083	-0.05317688	
1740732074084	-0.13793945	
1740732074085	-0.13214111	
1740732074086	-0.07003784	
1740732074087	-0.16021729	
1740732074088	-0.0743866	
1740732074089	0.22796631	
1740732074090	0.24627686	
1740732074091	0.095825195	
1740732074092	0.21194458	
1740732074093	0.22094727	
1740732074094	-0.05531311	
1740732074095	-0.009155273	
1740732074096	-0.019989014	
1740732074097	-0.13198853	
1740732074098	0.035858154	
1740732074099	0.051651	
1740732074100	-0.084991455	
1740732074101	-0.14595032	
1740732074102	-0.05744934	
1740732074103	-0.008239746	
1740732074104	-0.061645508	
1740732074105	-0.2610016	
1740732074106	-0.50575256	
1740732074107	-0.21606445	
1740732074108	0.14297485	
1740732074109	0.31433105	
1740732074110	0.37712097	
1740732074111	0.25222778	
1740732074112	0.3514099	
1740732074113	0.23544312	
1740732074114	-0.049591064	
1740732074115	-0.38284302	
1740732074116	-0.37094116	
1740732074117	0.17852783	
1740732074118	0.19447327	
1740732074119	0.236969	
1740732074120	0.29701233	
1740732074121	-0.009231567	
1740732074122	-0.076293945	
1740732074123	-0.11642456	
1740732074124	-0.043029785	
1740732074125	-0.030670166	
1740732074126	-0.22453308	
1740732074127	-0.24307251	
1740732074128	-0.20050049	
1740732074129	-0.12161255	
1740732074130	-0.023040771	
1740732074131	-0.008239746	
1740732074132	0.025939941	
1740732074133	0.07247925	
1740732074134	0.07194519	
1740732074135	-0.0061798096	
1740732074136	-0.15045166	
1740732074137	-0.15296936	
1740732074138	-0.0868988	
1740732074139	-0.04737854	
1740732074140	0.209198	
1740732074141	0.28282166	
1740732074142	0.06317139	
1740732074143	-0.009231567	
1740732074144	0.06813049	
1740732074145	0.22827148	
1740732074146	0.22315979	
1740732074147	0.1108551	
1740732074148	-0.019760132	
1740732074149	-0.26107788	
1740732074150	-0.2418518	
1740732074151	0.0012207031	
1740732074152	-0.060577393	
1740732074153	-0.15228271	
1740732074154	0.13923645	
1740732074155	0.16052246	
1740732074156	-0.2319336	
1740732074157	-0.28549194	
1740732074158	0.058288574	
1740732074159	0.27153015	
1740732074160	0.26733398	
1740732074161	0.292511	
1740732074162	0.2607727	
1740732074163	0.08491516	
1740732074164	0.0806427	
1740732074165	0.015945435	
1740732074166	-0.33058167	
1740732074167	-0.38414	
1740732074168	-0.25009155	
1740732074169	-0.22903442	
1740732074170	-0.10498047	
1740732074171	-0.0034332275	
1740732074172	0.017852783	
1740732074173	0.0060272217	
1740732074174	0.0035095215	
1740732074175	-0.032958984	
1740732074176	-0.13633728	
1740732074177	-0.06530762	
1740732074178	0.047531128	
1740732074179	0.043640137	
1740732074180	0.068740845	
1740732074181	-0.0036621094	
1740732074182	0.0064849854	
1740732074183	0.24299622	
1740732074184	0.17501831	
1740732074185	0.09460449	
1740732074186	0.19485474	
1740732074187	0.055770874	
1740732074188	-0.011978149	
1740732074189	-0.065078735	
1740732074190	-0.099105835	
1740732074191	0.010223389	
1740732074192	0.015182495	
1740732074193	0.00579834	
1740732074194	4.5776367E-4	
1740732074195	-0.013046265	
1740732074196	-0.026855469	
1740732074197	-0.012435913	
1740732074198	0.03112793	
1740732074199	-0.02571106	
1740732074200	-0.06790161	
1740732074201	-0.035629272	
1740732074202	-0.07110596	
1740732074203	-0.12626648	
1740732074204	-0.10513306	
1740732074205	-0.052642822	
1740732074206	-0.011520386	
1740732074207	-0.03501892	
1740732074208	-0.07659912	
1740732074209	0.033416748	
1740732074210	0.19088745	
1740732074211	0.31448364	
1740732074212	0.4044342	
1740732074213	0.25390625	
1740732074214	-0.0051116943	
1740732074215	-0.17524719	
1740732074216	-0.287323	
1740732074217	-0.4071045	
1740732074218	-0.37117004	
1740732074219	-0.15914917	
1740732074220	-0.02281189	
1740732074221	0.19729614	
1740732074222	0.4031372	
1740732074223	0.448761	
1740732074224	0.35339355	
1740732074225	0.01876831	
1740732074226	-0.119781494	
1740732074227	-0.078430176	
1740732074228	-0.12214661	
1740732074229	-0.092926025	
1740732074230	-0.12184143	
1740732074231	-0.21202087	
1740732074232	-0.16601562	
1740732074233	-0.0032043457	
1740732074234	0.0869751	
1740732074235	0.031585693	
1740732074236	-0.04585266	
1740732074237	-0.13755798	
1740732074238	-0.23124695	
1740732074239	-0.26298523	
1740732074240	-0.19073486	
1740732074241	-0.049743652	
1740732074242	0.031967163	
1740732074243	0.09262085	
1740732074244	0.19104004	
1740732074245	0.19058228	
1740732074246	0.0667572	
1740732074247	0.029220581	
1740732074248	0.13305664	
1740732074249	0.16067505	
1740732074250	0.11634827	
1740732074251	0.11642456	
1740732074252	0.078201294	
1740732074253	0.041427612	
1740732074254	0.031433105	
1740732074255	0.033493042	
1740732074256	0.033721924	
1740732074257	-0.026626587	
1740732074258	-0.07904053	
1740732074259	-0.07499695	
1740732074260	-0.035858154	
1740732074261	0.0011444092	
1740732074262	0.028305054	
1740732074263	0.031051636	
1740732074264	-0.047607422	
1740732074265	-0.11856079	
1740732074266	-0.061798096	
1740732074267	0.026473999	
1740732074268	0.04020691	
1740732074269	0.0289917	
1740732074270	0.06034851	
1740732074271	0.05569458	
1740732074272	0.011062622	
1740732074273	-0.0059509277	
1740732074274	-0.049743652	
1740732074275	-0.0617218	
1740732074276	-0.041809082	
1740732074277	-0.08018494	
1740732074278	-0.092315674	
1740732074279	-0.054779053	
1740732074280	-0.026321411	
1740732074281	-0.02571106	
1740732074282	-0.06713867	
1740732074283	-0.084991455	
1740732074284	-0.0340271	
1740732074285	0.004119873	
1740732074286	0.03189087	
1740732074287	0.04348755	
1740732074288	-0.012435913	
1740732074289	-0.01838684	
1740732074290	-0.05050659	
1740732074291	-0.08834839	
1740732074292	0.030670166	
1740732074293	0.17715454	
1740732074294	0.31021118	
1740732074295	0.3819275	
1740732074296	0.25131226	
1740732074297	-0.033416748	
1740732074298	-0.16090393	
1740732074299	-0.11161804	
1740732074300	-0.08483887	
1740732074301	-0.0793457	
1740732074302	-0.07637024	
1740732074303	-0.09162903	
1740732074304	-0.09994507	
1740732074305	-0.010375977	
1740732074306	0.030288696	
1740732074307	-0.023117065	
1740732074308	-0.028839111	
1740732074309	-0.017471313	
1740732074310	-0.010528564	
1740732074311	-0.050430298	
1740732074312	-0.06790161	
1740732074313	0.050354004	
1740732074314	0.13725281	
1740732074315	0.034713745	
1740732074316	-0.12557983	
1740732074317	-0.19836426	
1740732074318	-0.1373291	
1740732074319	-0.0073242188	
1740732074320	0.084991455	
1740732074321	0.09498596	
1740732074322	0.03555298	
1740732074323	0.022125244	
1740732074324	0.078201294	
1740732074325	0.20866394	
1740732074326	0.2645874	
1740732074327	0.12435913	
1740732074328	0.03135681	
1740732074329	-0.021972656	
1740732074330	-0.09048462	
1740732074331	-0.1424408	
1740732074332	-0.1474762	
1740732074333	-0.046844482	
1740732074334	0.010681152	
1740732074335	-0.01411438	
1740732074336	-0.046157837	
1740732074337	-0.0050354004	
1740732074338	0.08430481	
1740732074339	0.03807068	
1740732074340	-0.045928955	
1740732074341	-0.079422	
1740732074342	-0.1373291	
1740732074343	-0.15716553	
1740732074344	-0.14259338	
1740732074345	-0.08758545	
1740732074346	0.032577515	
1740732074347	0.10345459	
1740732074348	0.09643555	
1740732074349	0.03036499	
1740732074350	-0.010528564	
1740732074351	0.11138916	
1740732074352	0.1978302	
1740732074353	0.20675659	
1740732074354	0.23536682	
1740732074355	0.1687622	
1740732074356	0.09223938	
1740732074357	0.08583069	
1740732074358	0.021896362	
1740732074359	-0.11352539	
1740732074360	-0.23147583	
1740732074361	-0.2960968	
1740732074362	-0.2104187	
1740732074363	-0.029830933	
1740732074364	0.03440857	
1740732074365	-0.027542114	
1740732074366	-0.10932922	
1740732074367	-0.17036438	
1740732074368	-0.1851654	
1740732074369	-0.15159607	
1740732074370	-0.036392212	
1740732074371	0.084991455	
1740732074372	0.029907227	
1740732074373	0.032577515	
1740732074374	0.14099121	
1740732074375	0.14640808	
1740732074376	0.21438599	
1740732074377	0.206604	
1740732074378	0.03074646	
1740732074379	-0.021972656	
1740732074380	-0.018692017	
1740732074381	-0.051116943	
1740732074382	-0.058059692	
1740732074383	-0.057373047	
1740732074384	-0.022201538	
1740732074385	0.028533936	
1740732074386	0.03730774	
1740732074387	0.0022888184	
1740732074388	-0.029678345	
1740732074389	-0.0061798096	
1740732074390	-0.008544922	
1740732074391	-0.042800903	
1740732074392	-0.06286621	
1740732074393	-0.053253174	
1740732074394	0.0065612793	
1740732074395	0.061569214	
1740732074396	0.12176514	
1740732074397	0.11657715	
1740732074398	0.028762817	
1740732074399	0.0017547607	
1740732074400	-0.0064086914	
1740732074401	-0.020446777	
1740732074402	-0.036697388	
1740732074403	-0.01411438	
1740732074404	0.049209595	
1740732074405	0.025863647	
1740732074406	-0.016937256	
1740732074407	-0.026550293	
1740732074408	-0.072250366	
1740732074409	-0.11253357	
1740732074410	-0.09246826	
1740732074411	0.0019836426	
1740732074412	0.0970459	
1740732074413	0.06645203	
1740732074414	-0.008392334	
1740732074415	0.01083374	
1740732074416	0.019760132	
1740732074417	-0.031661987	
1740732074418	-0.02708435	
1740732074419	-0.05470276	
1740732074420	-0.14419556	
1740732074421	-0.12657166	
1740732074422	-0.015945435	
1740732074423	0.062561035	
1740732074424	0.025634766	
1740732074425	-0.020217896	
1740732074426	0.03303528	
1740732074427	0.07286072	
1740732074428	0.10681152	
1740732074429	0.10765076	
1740732074430	0.052871704	
1740732074431	0.07232666	
1740732074432	0.101242065	
1740732074433	0.046157837	
1740732074434	-0.028762817	
1740732074435	-0.07720947	
1740732074436	-0.062942505	
1740732074437	-0.04135132	
1740732074438	-0.037460327	
1740732074439	-0.017471313	
1740732074440	-0.0289917	
1740732074441	-0.05027771	
1740732074442	-0.021743774	
1740732074443	0.01449585	
1740732074444	0.017166138	
1740732074445	-0.04508972	
1740732074446	-0.074920654	
1740732074447	-0.025482178	
1740732074448	-0.015182495	
1740732074449	-0.0019836426	
1740732074450	-0.0029754639	
1740732074451	-0.029525757	
1740732074452	-0.01663208	
1740732074453	-0.00541687	
1740732074454	0.035247803	
1740732074455	0.09643555	
1740732074456	0.09857178	
1740732074457	0.058517456	
1740732074458	0.087127686	
1740732074459	0.087509155	
1740732074460	-0.05470276	
1740732074461	-0.10154724	
1740732074462	0.0025177002	
1740732074463	0.037002563	
1740732074464	-3.0517578E-4	
1740732074465	-0.049362183	
1740732074466	-0.02609253	
1740732074467	0.103378296	
1740732074468	0.14419556	
1740732074469	0.059509277	
1740732074470	-0.046539307	
1740732074471	-0.1146698	
1740732074472	-0.13916016	
1740732074473	-0.11375427	
1740732074474	-0.074539185	
1740732074475	-0.091781616	
1740732074476	-0.052642822	
1740732074477	0.025177002	
1740732074478	0.033721924	
1740732074479	0.0466156	
1740732074480	0.046920776	
1740732074481	0.02067566	
1740732074482	0.009002686	
1740732074483	-0.0034332275	
1740732074484	-0.0010681152	
1740732074485	-0.0021362305	
1740732074486	-0.015792847	
1740732074487	0.002746582	
1740732074488	0.0074768066	
1740732074489	-0.0036621094	
1740732074490	0.012588501	
1740732074491	0.018234253	
1740732074492	0.019454956	
1740732074493	0.016708374	
1740732074494	0.001449585	
1740732074495	0.0059509277	
1740732074496	0.00579834	
1740732074497	-0.012817383	
1740732074498	-0.005722046	
1740732074499	0.019989014	
1740732074500	0.010223389	
1740732074501	0.012359619	
1740732074502	0.0667572	
1740732074503	0.08834839	
1740732074504	0.06919861	
1740732074505	-0.0015258789	
1740732074506	-0.07247925	
1740732074507	0.016403198	
1740732074508	0.102386475	
1740732074509	0.02319336	
1740732074510	-0.123672485	
1740732074511	-0.21743774	
1740732074512	-0.10559082	
1740732074513	0.052337646	
1740732074514	0.07652283	
1740732074515	0.12573242	
1740732074516	0.12947083	
1740732074517	-0.001373291	
1740732074518	-0.064697266	
1740732074519	-0.052719116	
1740732074520	-0.07171631	
1740732074521	-0.07575989	
1740732074522	-0.061340332	
1740732074523	-0.04371643	
1740732074524	-0.029144287	
1740732074525	-0.03829956	
1740732074526	-0.0315094	
1740732074527	-0.011672974	
1740732074528	1.5258789E-4	
1740732074529	0.036849976	
1740732074530	0.05218506	
1740732074531	0.011367798	
1740732074532	0.0031280518	
1740732074533	0.02128601	
1740732074534	0.021362305	
1740732074535	0.026855469	
1740732074536	0.024795532	
1740732074537	0.021057129	
1740732074538	0.020370483	
1740732074539	0.017089844	
1740732074540	0.014724731	
1740732074541	0.008010864	
1740732074542	0.016937256	
1740732074543	0.02067566	
1740732074544	0.0047302246	
1740732074545	0.0064849854	
1740732074546	0.011749268	
1740732074547	0.0032043457	
1740732074548	7.6293945E-4	
1740732074549	0.0029754639	
1740732074550	-0.004043579	
1740732074551	-0.017547607	
1740732074552	-0.017166138	
1740732074553	-0.0021362305	
1740732074554	-0.002746582	
1740732074555	-0.020599365	
1740732074556	-0.021057129	
1740732074557	-0.0104522705	
1740732074558	-0.00869751	
1740732074559	-0.01159668	
1740732074560	-0.021820068	
1740732074561	-0.010986328	
1740732074562	0.010986328	
1740732074563	0.01411438	
1740732074564	0.012207031	
1740732074565	-9.918213E-4	
1740732074566	-0.002822876	
1740732074567	-0.00289917	
1740732074568	-0.013198853	
1740732074569	-7.6293945E-5	
1740732074570	0.015792847	
1740732074571	0.009002686	
1740732074572	-0.012054443	
1740732074573	-0.012207031	
1740732074574	-0.007095337	
1740732074575	-0.038528442	
1740732074576	-0.048828125	
1740732074577	-0.006866455	
1740732074578	0.027770996	
1740732074579	0.035858154	
1740732074580	0.03425598	
1740732074581	0.00869751	
1740732074582	-0.005264282	
1740732074583	0.009613037	
1740732074584	0.01777649	
1740732074585	0.030441284	
1740732074586	0.02456665	
1740732074587	0.012588501	
1740732074588	0.01449585	
1740732074589	-0.0016784668	
1740732074590	-0.021591187	
1740732074591	-0.022277832	
1740732074592	-0.010910034	
1740732074593	-0.020141602	
1740732074594	-0.05470276	
1740732074595	-0.08430481	
1740732074596	-0.10147095	
1740732074597	-0.113983154	
1740732074598	-0.060577393	
1740732074599	0.11528015	
1740732074600	0.28442383	
1740732074601	0.33790588	
1740732074602	0.209198	
1740732074603	-0.0090789795	
1740732074604	-0.065460205	
1740732074605	-0.14045715	
1740732074606	-0.23002625	
1740732074607	-0.14533997	
1740732074608	-0.06271362	
1740732074609	0.0466156	
1740732074610	0.1410675	
1740732074611	0.107803345	
1740732074612	0.016784668	
1740732074613	-0.07659912	
1740732074614	-0.10795593	
1740732074615	-0.109558105	
1740732074616	-0.12123108	
1740732074617	-0.080947876	
1740732074618	-0.022659302	
1740732074619	-0.013656616	
1740732074620	0.011444092	
1740732074621	0.043563843	
1740732074622	0.03967285	
1740732074623	0.023727417	
1740732074624	-0.005264282	
1740732074625	-0.021591187	
1740732074626	0.011138916	
1740732074627	0.05958557	
1740732074628	0.0579834	
1740732074629	0.088272095	
1740732074630	0.1651001	
1740732074631	0.1108551	
1740732074632	0.03112793	
1740732074633	-0.020980835	
1740732074634	-0.11405945	
1740732074635	-0.10635376	
1740732074636	-0.028381348	
1740732074637	-0.007171631	
1740732074638	0.059509277	
1740732074639	0.14816284	
1740732074640	0.049591064	
1740732074641	-0.042877197	
1740732074642	-0.0066375732	
1740732074643	-0.001373291	
1740732074644	0.036010742	
1740732074645	0.0016021729	
1740732074646	-0.06790161	
1740732074647	-0.04890442	
1740732074648	-0.0818634	
1740732074649	-0.07713318	
1740732074650	-0.052490234	
1740732074651	-0.06248474	
1740732074652	-0.029830933	
1740732074653	-0.01876831	
1740732074654	0.0051116943	
1740732074655	0.0060272217	
1740732074656	-0.028686523	
1740732074657	0.0024414062	
1740732074658	0.056915283	
1740732074659	0.07614136	
1740732074660	0.01838684	
1740732074661	0.0033569336	
1740732074662	0.047454834	
1740732074663	0.0035858154	
1740732074664	-0.0016784668	
1740732074665	0.016937256	
1740732074666	-0.010528564	
1740732074667	-0.007095337	
1740732074668	-0.009689331	
1740732074669	-0.0023651123	
1740732074670	0.0	
1740732074671	-0.008926392	
1740732074672	-3.0517578E-4	
1740732074673	-0.00289917	
1740732074674	-0.0077056885	
1740732074675	-0.005722046	
1740732074676	0.002670288	
1740732074677	0.024337769	
1740732074678	0.03944397	
1740732074679	0.045700073	
1740732074680	0.03677368	
1740732074681	0.006713867	
1740732074682	0.0020599365	
1740732074683	0.008926392	
1740732074684	-0.027923584	
1740732074685	-0.087509155	
1740732074686	-0.07720947	
1740732074687	-0.005569458	
1740732074688	0.062332153	
1740732074689	0.1561737	
1740732074690	0.15426636	
1740732074691	0.0059509277	
1740732074692	-0.11489868	
1740732074693	-0.19241333	
1740732074694	-0.17990112	
1740732074695	-0.09185791	
1740732074696	-0.03540039	
1740732074697	0.06668091	
1740732074698	0.11428833	
1740732074699	0.05935669	
1740732074700	0.037231445	
1740732074701	0.029830933	
1740732074702	0.016021729	
1740732074703	0.0024414062	
1740732074704	-0.0066375732	
1740732074705	-0.011520386	
1740732074706	-0.007095337	
1740732074707	0.012893677	
1740732074708	0.014190674	
1740732074709	0.0024414062	
1740732074710	-0.009765625	
1740732074711	-0.02532959	
1740732074712	-0.061035156	
1740732074713	-0.064697266	
1740732074714	0.009460449	
1740732074715	0.0806427	
1740732074716	0.12893677	
1740732074717	0.0907135	
1740732074718	0.024032593	
1740732074719	0.045776367	
1740732074720	-0.04386902	
1740732074721	-0.14801025	
1740732074722	-0.09819031	
1740732074723	-0.034179688	
1740732074724	0.024261475	
1740732074725	0.04737854	
1740732074726	0.038375854	
1740732074727	0.017089844	
1740732074728	0.0051116943	
1740732074729	0.026550293	
1740732074730	0.0048065186	
1740732074731	-0.02609253	
1740732074732	-0.024795532	
1740732074733	-0.030288696	
1740732074734	-0.023803711	
1740732074735	-0.01914978	
1740732074736	-0.023651123	
1740732074737	-0.00289917	
1740732074738	0.021438599	
1740732074739	-0.0018310547	
1740732074740	-0.046691895	
1740732074741	-0.010375977	
1740732074742	0.071640015	
1740732074743	-0.016708374	
1740732074744	-0.13793945	
1740732074745	-0.0579834	
1740732074746	-0.044326782	
1740732074747	-0.118255615	
1740732074748	-0.008239746	
1740732074749	0.12962341	
1740732074750	0.18791199	
1740732074751	0.31333923	
1740732074752	0.4122162	
1740732074753	0.32089233	
1740732074754	0.03303528	
1740732074755	-0.2166748	
1740732074756	-0.30792236	
1740732074757	-0.3164673	
1740732074758	-0.17967224	
1740732074759	-0.05126953	
1740732074760	0.11886597	
1740732074761	0.2015686	
1740732074762	-0.021743774	
1740732074763	-0.03753662	
1740732074764	-0.024642944	
1740732074765	-0.3123474	
1740732074766	-0.5038452	
1740732074767	-0.41145325	
1740732074768	-0.16334534	
1740732074769	0.05493164	
1740732074770	0.1613617	
1740732074771	0.2531433	
1740732074772	0.38856506	
1740732074773	0.49812317	
1740732074774	0.46211243	
1740732074775	0.16456604	
1740732074776	-0.035247803	
1740732074777	0.08430481	
1740732074778	-0.10040283	
1740732074779	-0.3465271	
1740732074780	-0.12809753	
1740732074781	0.016937256	
1740732074782	0.016708374	
1740732074783	0.05470276	
1740732074784	0.037384033	
1740732074785	0.078811646	
1740732074786	0.20393372	
1740732074787	0.11230469	
1740732074788	-0.2166748	
1740732074789	-0.2709961	
1740732074790	-0.17829895	
1740732074791	-0.15090942	
1740732074792	0.0075531006	
1740732074793	0.061416626	
1740732074794	-0.1234436	
1740732074795	-0.266037	
1740732074796	-0.15586853	
1740732074797	-0.03715515	
1740732074798	-0.07652283	
1740732074799	-0.120010376	
1740732074800	-0.08514404	
1740732074801	0.07156372	
1740732074802	0.26931763	
1740732074803	0.37864685	
1740732074804	0.29190063	
1740732074805	0.11924744	
1740732074806	-0.027618408	
1740732074807	-0.2519989	
1740732074808	-0.20889282	
1740732074809	0.08605957	
1740732074810	0.104599	
1740732074811	0.066223145	
1740732074812	0.07751465	
1740732074813	0.10635376	
1740732074814	0.17150879	
1740732074815	0.09353638	
1740732074816	0.048828125	
1740732074817	0.001449585	
1740732074818	-0.18035889	
1740732074819	-0.22865295	
1740732074820	-0.055999756	
1740732074821	0.1499939	
1740732074822	0.0793457	
1740732074823	-0.22987366	
1740732074824	-0.23132324	
1740732074825	0.011291504	
1740732074826	0.1865387	
1740732074827	0.22666931	
1740732074828	-0.058135986	
1740732074829	-0.20698547	
1740732074830	-0.076675415	
1740732074831	-0.07736206	
1740732074832	0.080718994	
1740732074833	0.27877808	
1740732074834	0.07896423	
1740732074835	-0.11276245	
1740732074836	-0.019073486	
1740732074837	0.07904053	
1740732074838	0.021896362	
1740732074839	-0.07522583	
1740732074840	-0.05241394	
1740732074841	-0.025177002	
1740732074842	-0.09300232	
1740732074843	-0.12023926	
1740732074844	-0.16693115	
1740732074845	-0.13374329	
1740732074846	0.09277344	
1740732074847	0.15586853	
1740732074848	0.0045776367	
1740732074849	0.054016113	
1740732074850	0.1461029	
1740732074851	-0.009994507	
1740732074852	-0.015487671	
1740732074853	0.08628845	
1740732074854	0.04814148	
1740732074855	0.006942749	
1740732074856	-0.08491516	
1740732074857	-0.09605408	
1740732074858	-0.03768921	
1740732074859	-0.0012969971	
1740732074860	0.06347656	
1740732074861	-0.03211975	
1740732074862	-0.090408325	
1740732074863	-0.016708374	
1740732074864	-0.032348633	
1740732074865	-0.04875183	
1740732074866	-0.09140015	
1740732074867	-0.111083984	
1740732074868	-0.06706238	
1740732074869	0.005645752	
1740732074870	0.30822754	
1740732074871	0.5531311	
1740732074872	0.38589478	
1740732074873	0.10284424	
1740732074874	0.080566406	
1740732074875	0.010147095	
1740732074876	-0.19989014	
1740732074877	-0.083618164	
1740732074878	0.027618408	
1740732074879	-0.07888794	
1740732074880	-0.17700195	
1740732074881	-0.14556885	
1740732074882	-0.13496399	
1740732074883	-0.37780762	
1740732074884	-0.39649963	
1740732074885	-0.17578125	
1740732074886	-0.06843567	
1740732074887	0.012969971	
1740732074888	0.20057678	
1740732074889	0.22544861	
1740732074890	0.023651123	
1740732074891	0.13580322	
1740732074892	0.18081665	
1740732074893	-0.018081665	
1740732074894	-0.022659302	
1740732074895	0.059814453	
1740732074896	0.115737915	
1740732074897	0.03364563	
1740732074898	0.0019073486	
1740732074899	0.024490356	
1740732074900	-0.009918213	
1740732074901	0.09651184	
1740732074902	0.17463684	
1740732074903	0.07476807	
1740732074904	-0.042419434	
1740732074905	-0.009689331	
1740732074906	0.011978149	
1740732074907	-0.10040283	
1740732074908	-0.09765625	
1740732074909	-0.05836487	
1740732074910	-0.10513306	
1740732074911	-0.08552551	
1740732074912	-0.07232666	
1740732074913	-0.10643005	
1740732074914	-0.016403198	
1740732074915	0.044784546	
1740732074916	-0.064315796	
1740732074917	-0.033493042	
1740732074918	0.10902405	
1740732074919	0.128479	
1740732074920	0.076675415	
1740732074921	0.024490356	
1740732074922	0.021209717	
1740732074923	0.043792725	
1740732074924	0.053863525	
1740732074925	0.05340576	
1740732074926	0.017089844	
1740732074927	-0.01838684	
1740732074928	-0.023803711	
1740732074929	-0.024337769	
1740732074930	-0.014877319	
1740732074931	-0.030059814	
1740732074932	-0.07102966	
1740732074933	-0.08079529	
1740732074934	-0.076293945	
1740732074935	-0.034179688	
1740732074936	0.01739502	
1740732074937	0.005874634	
1740732074938	0.0045776367	
1740732074939	0.025634766	
1740732074940	0.039520264	
1740732074941	0.106048584	
1740732074942	0.10551453	
1740732074943	-0.073013306	
1740732074944	-0.1700592	
1740732074945	-0.06744385	
1740732074946	0.12687683	
1740732074947	0.19340515	
1740732074948	-0.010070801	
1740732074949	-0.1259613	
1740732074950	-0.01777649	
1740732074951	0.037841797	
1740732074952	-0.092163086	
1740732074953	-0.21903992	
1740732074954	-0.09780884	
1740732074955	0.041656494	
1740732074956	0.061950684	
1740732074957	0.041503906	
1740732074958	0.08216858	
1740732074959	0.2947235	
1740732074960	0.26924133	
1740732074961	0.08003235	
1740732074962	-0.09140015	
1740732074963	-0.22354126	
1740732074964	-0.057373047	
1740732074965	0.01121521	
1740732074966	0.03944397	
1740732074967	0.050354004	
1740732074968	-0.02998352	
1740732074969	0.024642944	
1740732074970	-0.081100464	
1740732074971	-0.1915741	
1740732074972	-0.13648987	
1740732074973	-0.104141235	
1740732074974	-0.026397705	
1740732074975	0.053634644	
1740732074976	0.07423401	
1740732074977	0.02357483	
1740732074978	-0.03753662	
1740732074979	0.0017547607	
1740732074980	0.04447937	
1740732074981	0.005340576	
1740732074982	-0.06439209	
1740732074983	-0.03112793	
1740732074984	0.033569336	
1740732074985	-0.096206665	
1740732074986	-0.2294159	
1740732074987	-0.12832642	
1740732074988	0.090408325	
1740732074989	0.2722168	
1740732074990	0.28541565	
1740732074991	0.24230957	
1740732074992	0.23651123	
1740732074993	0.12924194	
1740732074994	0.13755798	
1740732074995	0.21095276	
1740732074996	0.12573242	
1740732074997	0.045394897	
1740732074998	-0.098342896	
1740732074999	-0.21476746	
1740732075000	-0.13771057	
1740732075001	-0.14190674	
1740732075002	-0.24108887	
1740732075003	-0.24093628	
1740732075004	-0.26924133	
1740732075005	-0.29968262	
1740732075006	-0.12008667	
1740732075007	-0.0032043457	
1740732075008	-0.077438354	
1740732075009	-0.087509155	
1740732075010	0.005645752	
1740732075011	0.1474762	
1740732075012	0.15106201	
1740732075013	0.013504028	
1740732075014	-0.032348633	
1740732075015	-0.034332275	
1740732075016	-0.024490356	
1740732075017	0.08468628	
1740732075018	0.2431488	
1740732075019	0.32783508	
1740732075020	0.29060364	
1740732075021	0.19706726	
1740732075022	0.09300232	
1740732075023	-0.005493164	
1740732075024	-0.07720947	
1740732075025	-0.12359619	
1740732075026	-0.12870789	
1740732075027	-0.09857178	
1740732075028	-0.055160522	
1740732075029	-0.04585266	
1740732075030	-0.04257202	
1740732075031	-0.023956299	
1740732075032	-0.03730774	
1740732075033	-0.040664673	
1740732075034	-0.053634644	
1740732075035	-0.050048828	
1740732075036	-0.013427734	
1740732075037	-0.012817383	
1740732075038	-0.02067566	
1740732075039	-0.026397705	
1740732075040	0.0022888184	
1740732075041	0.03555298	
1740732075042	0.037841797	
1740732075043	0.054855347	
1740732075044	0.041732788	
1740732075045	0.0077056885	
1740732075046	-3.0517578E-4	
1740732075047	0.017547607	
1740732075048	0.022506714	
1740732075049	0.005874634	
1740732075050	-0.018463135	
1740732075051	-0.111694336	
1740732075052	-0.20126343	
1740732075053	-0.11672974	
1740732075054	0.089035034	
1740732075055	0.21987915	
1740732075056	0.26161194	
1740732075057	0.19615173	
1740732075058	0.059280396	
1740732075059	0.016937256	
1740732075060	-0.019073486	
1740732075061	-0.057754517	
1740732075062	-0.024414062	
1740732075063	0.0146484375	
1740732075064	0.06378174	
1740732075065	0.117492676	
1740732075066	0.10070801	
1740732075067	-0.041503906	
1740732075068	-0.19096375	
1740732075069	-0.23269653	
1740732075070	-0.20759583	
1740732075071	-0.15136719	
1740732075072	-0.1222229	
1740732075073	-0.10307312	
1740732075074	-0.09780884	
1740732075075	-0.11161804	
1740732075076	-0.057525635	
1740732075077	0.058517456	
1740732075078	0.15815735	
1740732075079	0.1537323	
1740732075080	0.083999634	
1740732075081	0.043792725	
1740732075082	-0.002670288	
1740732075083	-0.0025177002	
1740732075084	0.0340271	
1740732075085	0.037002563	
1740732075086	0.05836487	
1740732075087	0.05722046	
1740732075088	0.049819946	
1740732075089	0.08239746	
1740732075090	0.064315796	
1740732075091	-0.025100708	
1740732075092	-0.07209778	
1740732075093	-0.026321411	
1740732075094	0.037231445	
1740732075095	0.0074768066	
1740732075096	-0.053253174	
1740732075097	-0.02029419	
1740732075098	0.024490356	
1740732075099	0.056533813	
1740732075100	0.12557983	
1740732075101	0.062179565	
1740732075102	-0.081710815	
1740732075103	-0.09284973	
1740732075104	0.0036621094	
1740732075105	0.128479	
1740732075106	0.09765625	
1740732075107	-0.04638672	
1740732075108	-0.08155823	
1740732075109	-0.10475159	
1740732075110	-0.1802826	
1740732075111	-0.12947083	
1740732075112	-0.032196045	
1740732075113	-0.03440857	
1740732075114	-0.039215088	
1740732075115	-0.037994385	
1740732075116	-0.024642944	
1740732075117	-0.0038909912	
1740732075118	0.018463135	
1740732075119	0.04623413	
1740732075120	0.072250366	
1740732075121	0.10444641	
1740732075122	0.11810303	
1740732075123	0.07476807	
1740732075124	0.0064849854	
1740732075125	-0.005569458	
1740732075126	-0.010070801	
1740732075127	-3.8146973E-4	
1740732075128	0.026245117	
1740732075129	-0.0050354004	
1740732075130	-0.029296875	
1740732075131	0.001373291	
1740732075132	0.039901733	
1740732075133	0.030899048	
1740732075134	-0.02456665	
1740732075135	-0.07766724	
1740732075136	-0.08239746	
1740732075137	-0.059814453	
1740732075138	-0.005722046	
1740732075139	0.04547119	
1740732075140	0.03982544	
1740732075141	0.036697388	
1740732075142	0.038528442	
1740732075143	0.011367798	
1740732075144	0.0034332275	
1740732075145	0.027694702	
1740732075146	0.024871826	
1740732075147	-0.0016021729	
1740732075148	-0.029449463	
1740732075149	-0.04135132	
1740732075150	-0.049972534	
1740732075151	-0.06561279	
1740732075152	-0.04547119	
1740732075153	-0.024490356	
1740732075154	-0.019989014	
1740732075155	0.019607544	
1740732075156	0.04348755	
1740732075157	0.012435913	
1740732075158	-0.049438477	
1740732075159	-0.07408142	
1740732075160	-0.012741089	
1740732075161	0.042495728	
1740732075162	0.09529114	
1740732075163	0.15922546	
1740732075164	0.13122559	
1740732075165	0.03440857	
1740732075166	-0.07507324	
1740732075167	-0.11634827	
1740732075168	-0.06729126	
1740732075169	-0.037765503	
1740732075170	-0.0630188	
1740732075171	-0.05973816	
1740732075172	0.035324097	
1740732075173	0.052642822	
1740732075174	0.028305054	
1740732075175	0.108795166	
1740732075176	0.043945312	
1740732075177	-0.11604309	
1740732075178	-0.06439209	
1740732075179	0.09208679	
1740732075180	0.09635925	
1740732075181	-0.031814575	
1740732075182	-0.075683594	
1740732075183	0.0035858154	
1740732075184	0.05393982	
1740732075185	-0.0023651123	
1740732075186	0.045166016	
1740732075187	0.07446289	
1740732075188	-0.17959595	
1740732075189	-0.25619507	
1740732075190	-0.02494812	
1740732075191	0.1462555	
1740732075192	0.17944336	
1740732075193	0.19943237	
1740732075194	0.2204895	
1740732075195	-0.01777649	
1740732075196	-0.341568	
1740732075197	-0.29281616	
1740732075198	-0.13938904	
1740732075199	-0.14671326	
1740732075200	-0.008850098	
1740732075201	0.15419006	
1740732075202	0.10307312	
1740732075203	0.0920105	
1740732075204	0.14183044	
1740732075205	0.1007843	
1740732075206	0.03677368	
1740732075207	-0.06706238	
1740732075208	-0.20591736	
1740732075209	-0.102386475	
1740732075210	0.15411377	
1740732075211	0.12863159	
1740732075212	-0.020599365	
1740732075213	0.016326904	
1740732075214	0.11886597	
1740732075215	0.1789093	
1740732075216	0.09674072	
1740732075217	-0.048980713	
1740732075218	-0.12123108	
1740732075219	-0.18890381	
1740732075220	-0.26237488	
1740732075221	-0.20889282	
1740732075222	-0.035247803	
1740732075223	0.051727295	
1740732075224	0.08766174	
1740732075225	0.1776886	
1740732075226	0.09994507	
1740732075227	-0.0743866	
1740732075228	-0.045394897	
1740732075229	0.019302368	
1740732075230	0.014877319	
1740732075231	0.04081726	
1740732075232	0.020828247	
1740732075233	0.0050354004	
1740732075234	0.032043457	
1740732075235	0.038986206	
1740732075236	0.02708435	
1740732075237	-0.0049591064	
1740732075238	-0.02670288	
1740732075239	-0.054016113	
1740732075240	-0.06034851	
1740732075241	-0.045776367	
1740732075242	-0.047912598	
1740732075243	-0.046157837	
1740732075244	-0.010528564	
1740732075245	0.07400513	
1740732075246	0.13267517	
1740732075247	0.10101318	
1740732075248	0.07034302	
1740732075249	0.13175964	
1740732075250	0.11947632	
1740732075251	-0.05203247	
1740732075252	-0.16265869	
1740732075253	-0.07209778	
1740732075254	-0.08483887	
1740732075255	-0.25283813	
1740732075256	-0.20957947	
1740732075257	-0.12962341	
1740732075258	-0.1361084	
1740732075259	0.010986328	
1740732075260	0.08598328	
1740732075261	0.08262634	
1740732075262	0.22369385	
1740732075263	0.27679443	
1740732075264	0.20812988	
1740732075265	0.17196655	
1740732075266	0.25260925	
1740732075267	0.29396057	
1740732075268	-0.011062622	
1740732075269	-0.14663696	
1740732075270	0.024871826	
1740732075271	-0.2192688	
1740732075272	-0.48339844	
1740732075273	-0.28282166	
1740732075274	-0.064697266	
1740732075275	0.045166016	
1740732075276	0.091552734	
1740732075277	-0.08880615	
1740732075278	-0.128479	
1740732075279	0.05897522	
1740732075280	0.111312866	
1740732075281	0.22994995	
1740732075282	0.007019043	
1740732075283	-0.39840698	
1740732075284	-0.14480591	
1740732075285	-0.024261475	
1740732075286	-0.12313843	
1740732075287	0.034942627	
1740732075288	0.01876831	
1740732075289	0.038909912	
1740732075290	0.13374329	
1740732075291	0.21766663	
1740732075292	0.1285553	
1740732075293	-0.10658264	
1740732075294	-0.1689148	
1740732075295	-0.22041321	
1740732075296	0.04348755	
1740732075297	0.22117615	
1740732075298	0.16693115	
1740732075299	0.3211975	
1740732075300	0.26008606	
1740732075301	0.16311646	
1740732075302	0.1574707	
1740732075303	0.1348114	
1740732075304	0.13664246	
1740732075305	-0.0415802	
1740732075306	-0.16921997	
1740732075307	-0.096206665	
1740732075308	-0.056610107	
1740732075309	-0.23963928	
1740732075310	-0.3414917	
1740732075311	-0.29426575	
1740732075312	-0.32104492	
1740732075313	-0.17791748	
1740732075314	0.0017547607	
1740732075315	0.075683594	
1740732075316	0.117111206	
1740732075317	0.032806396	
1740732075318	-0.1348114	
1740732075319	-0.25680542	
1740732075320	-0.056381226	
1740732075321	0.18302917	
1740732075322	0.26474	
1740732075323	0.3995514	
1740732075324	0.23902893	
1740732075325	-0.0025939941	
1740732075326	-0.21209717	
1740732075327	-0.41610718	
1740732075328	-0.23849487	
1740732075329	0.008468628	
1740732075330	0.39146423	
1740732075331	0.7661438	
1740732075332	0.4345703	
1740732075333	-0.20568848	
1740732075334	-0.34843445	
1740732075335	-0.12695312	
1740732075336	0.07698059	
1740732075337	0.18814087	
1740732075338	-0.08140564	
1740732075339	-0.31982422	
1740732075340	-0.021362305	
1740732075341	0.12916565	
1740732075342	-0.17173767	
1740732075343	-0.21392822	
1740732075344	-0.02746582	
1740732075345	-0.12214661	
1740732075346	-0.08163452	
1740732075347	-7.6293945E-4	
1740732075348	-0.051651	
1740732075349	0.20050049	
1740732075350	0.32165527	
1740732075351	0.0869751	
1740732075352	-0.055541992	
1740732075353	0.03540039	
1740732075354	0.03730774	
1740732075355	-0.059127808	
1740732075356	0.119400024	
1740732075357	0.14144897	
1740732075358	-0.042800903	
1740732075359	0.04989624	
1740732075360	-0.09712219	
1740732075361	-0.38589478	
1740732075362	-0.09475708	
1740732075363	-0.014953613	
1740732075364	-0.34423828	
1740732075365	-0.14053345	
1740732075366	0.10444641	
1740732075367	-0.022125244	
1740732075368	0.14167786	
1740732075369	0.31356812	
1740732075370	0.096206665	
1740732075371	-0.12428284	
1740732075372	-0.27664185	
1740732075373	-0.19309998	
1740732075374	0.14396667	
1740732075375	0.34835815	
1740732075376	0.49194336	
1740732075377	0.5163574	
1740732075378	0.26618958	
1740732075379	-0.19302368	
1740732075380	-0.62950134	
1740732075381	-0.52253723	
1740732075382	-0.17021179	
1740732075383	-0.1991272	
1740732075384	-0.027236938	
1740732075385	0.311203	
1740732075386	0.24162292	
1740732075387	0.13671875	
1740732075388	0.12184143	
1740732075389	0.06538391	
1740732075390	-0.064086914	
1740732075391	-0.19470215	
1740732075392	-0.2710724	
1740732075393	-0.25901794	
1740732075394	-0.12466431	
1740732075395	0.10482788	
1740732075396	0.31982422	
1740732075397	0.25009155	
1740732075398	0.25146484	
1740732075399	0.3276825	
1740732075400	0.24330139	
1740732075401	0.21278381	
1740732075402	-0.076675415	
1740732075403	-0.27900696	
1740732075404	-0.19081116	
1740732075405	-0.2644348	
1740732075406	-0.3035736	
1740732075407	-0.17784119	
1740732075408	-0.15487671	
1740732075409	-0.28862	
1740732075410	-0.18081665	
1740732075411	-0.030899048	
1740732075412	0.042419434	
1740732075413	0.18630981	
1740732075414	0.1423645	
1740732075415	0.1348114	
1740732075416	0.059280396	
1740732075417	0.001373291	
1740732075418	0.09971619	
1740732075419	0.08087158	
1740732075420	0.13900757	
1740732075421	0.29830933	
1740732075422	0.3656006	
1740732075423	-0.10719299	
1740732075424	-0.3955841	
1740732075425	0.031967163	
1740732075426	-0.044631958	
1740732075427	-0.047683716	
1740732075428	0.2935791	
1740732075429	0.13214111	
1740732075430	-0.017089844	
1740732075431	-0.25421143	
1740732075432	-0.340271	
1740732075433	-0.12878418	
1740732075434	-0.07324219	
1740732075435	0.08705139	
1740732075436	-0.0756073	
1740732075437	-0.23208618	
1740732075438	0.20065308	
1740732075439	0.3515625	
1740732075440	0.0019073486	
1740732075441	-0.11558533	
1740732075442	-0.055923462	
1740732075443	-0.18112183	
1740732075444	-0.08491516	
1740732075445	0.041046143	
1740732075446	-0.011367798	
1740732075447	0.046844482	
1740732075448	-0.016937256	
1740732075449	0.028457642	
1740732075450	0.19721985	
1740732075451	0.059051514	
1740732075452	0.046844482	
1740732075453	0.17242432	
1740732075454	-0.008163452	
1740732075455	-0.2709198	
1740732075456	-0.030899048	
1740732075457	0.5354309	
1740732075458	0.36453247	
1740732075459	-0.033569336	
1740732075460	0.040512085	
1740732075461	-0.15167236	
1740732075462	-0.25100708	
1740732075463	-0.028533936	
1740732075464	0.029067993	
1740732075465	-0.07850647	
1740732075466	-0.2581787	
1740732075467	-0.18753052	
1740732075468	-0.07484436	
1740732075469	-0.14030457	
1740732075470	-0.24169922	
1740732075471	-0.4221344	
1740732075472	-0.16952515	
1740732075473	0.2937317	
1740732075474	0.2029419	
1740732075475	-0.021591187	
1740732075476	0.016860962	
1740732075477	0.28266907	
1740732075478	0.3577423	
1740732075479	-0.010681152	
1740732075480	-0.04386902	
1740732075481	0.34179688	
1740732075482	0.36376953	
1740732075483	0.10139465	
1740732075484	0.079193115	
1740732075485	0.091934204	
1740732075486	-0.13092041	
1740732075487	-0.06736755	
1740732075488	-3.8146973E-4	
1740732075489	-0.4688263	
1740732075490	-0.4273224	
1740732075491	0.023117065	
1740732075492	0.01411438	
1740732075493	-0.06858826	
1740732075494	-0.14755249	
1740732075495	-0.16166687	
1740732075496	0.03845215	
1740732075497	0.11642456	
1740732075498	-0.096588135	
1740732075499	-0.17501831	
1740732075500	0.25856018	
1740732075501	0.42274475	
1740732075502	-0.044403076	
1740732075503	-0.048446655	
1740732075504	0.20431519	
1740732075505	-0.10169983	
1740732075506	-0.2609253	
1740732075507	-0.0049591064	
1740732075508	0.27633667	
1740732075509	0.4675293	
1740732075510	0.42823792	
1740732075511	0.16197205	
1740732075512	-0.16471863	
1740732075513	-0.33287048	
1740732075514	-0.37635803	
1740732075515	-0.29769897	
1740732075516	-0.09674072	
1740732075517	-0.10726929	
1740732075518	-0.12992859	
1740732075519	0.028381348	
1740732075520	0.14266968	
1740732075521	0.08720398	
1740732075522	-0.05607605	
1740732075523	0.12741089	
1740732075524	0.29014587	
1740732075525	0.08148193	
1740732075526	-0.11642456	
1740732075527	-0.24238586	
1740732075528	-0.29396057	
1740732075529	-0.15655518	
1740732075530	0.014419556	
1740732075531	-0.03616333	
1740732075532	-0.13885498	
1740732075533	-0.10498047	
1740732075534	0.17738342	
1740732075535	0.440979	
1740732075536	0.3630066	
1740732075537	0.36247253	
1740732075538	0.16311646	
1740732075539	-0.24414062	
1740732075540	-0.022506714	
1740732075541	0.26657104	
1740732075542	0.119781494	
1740732075543	-0.19142151	
1740732075544	-0.5882263	
1740732075545	-0.6202698	
1740732075546	-0.17105103	
1740732075547	0.2507019	
1740732075548	0.2571869	
1740732075549	0.27763367	
1740732075550	0.25138855	
1740732075551	-0.052337646	
1740732075552	-0.009613037	
1740732075553	0.005722046	
1740732075554	-0.093307495	
1740732075555	-0.04699707	
1740732075556	-0.12710571	
1740732075557	-0.06484985	
1740732075558	-0.058059692	
1740732075559	-0.25024414	
1740732075560	-0.17204285	
1740732075561	0.103302	
1740732075562	0.12207031	
1740732075563	-0.054092407	
1740732075564	0.079574585	
1740732075565	0.22743225	
1740732075566	0.07476807	
1740732075567	-0.0016784668	
1740732075568	0.028305054	
1740732075569	0.046844482	
1740732075570	0.01953125	
1740732075571	0.08644104	
1740732075572	0.15289307	
1740732075573	0.012588501	
1740732075574	-0.052642822	
1740732075575	-0.08293152	
1740732075576	-0.122299194	
1740732075577	-0.029907227	
1740732075578	0.0022888184	
1740732075579	0.060195923	
1740732075580	0.035858154	
1740732075581	-0.22872925	
1740732075582	-0.28625488	
1740732075583	-0.20729065	
1740732075584	-0.20683289	
1740732075585	0.07659912	
1740732075586	0.4434967	
1740732075587	0.39268494	
1740732075588	0.24559021	
1740732075589	0.2305603	
1740732075590	0.017852783	
1740732075591	-0.14099121	
1740732075592	-0.08377075	
1740732075593	-0.102996826	
1740732075594	-0.09643555	
1740732075595	-0.046081543	
1740732075596	-0.028686523	
1740732075597	-0.038986206	
1740732075598	-0.11985779	
1740732075599	-0.14465332	
1740732075600	-0.106277466	
1740732075601	-0.05180359	
1740732075602	0.010910034	
1740732075603	0.051345825	
1740732075604	0.0743103	
1740732075605	0.0466156	
1740732075606	0.048446655	
1740732075607	0.0756073	
1740732075608	0.003967285	
1740732075609	0.01953125	
1740732075610	0.07904053	
1740732075611	0.024642944	
1740732075612	0.005569458	
1740732075613	-0.08262634	
1740732075614	-0.22613525	
1740732075615	-0.14198303	
1740732075616	0.007858276	
1740732075617	-0.0045776367	
1740732075618	0.07217407	
1740732075619	0.21896362	
1740732075620	0.20202637	
1740732075621	0.07316589	
1740732075622	-0.008239746	
1740732075623	0.01914978	
1740732075624	0.015792847	
1740732075625	-3.0517578E-4	
1740732075626	-0.010223389	
1740732075627	-0.06385803	
1740732075628	-0.033416748	
1740732075629	0.009231567	
1740732075630	-0.09147644	
1740732075631	-0.10734558	
1740732075632	0.01083374	
1740732075633	-0.008773804	
1740732075634	-0.02960205	
1740732075635	0.01121521	
1740732075636	-0.007171631	
1740732075637	-0.02067566	
1740732075638	-0.026779175	
1740732075639	-0.0033569336	
1740732075640	0.01121521	
1740732075641	0.008544922	
1740732075642	0.021362305	
1740732075643	0.022506714	
1740732075644	0.029220581	
1740732075645	0.024871826	
1740732075646	0.023040771	
1740732075647	0.007247925	
1740732075648	-0.0051116943	
1740732075649	1.5258789E-4	
1740732075650	-0.0074768066	
1740732075651	-0.009002686	
1740732075652	-0.0011444092	
1740732075653	-0.001373291	
1740732075654	0.0036621094	
1740732075655	0.00831604	
1740732075656	0.0021362305	
1740732075657	0.0036621094	
1740732075658	0.0063323975	
1740732075659	0.0032806396	
1740732075660	0.010986328	
1740732075661	0.005493164	
1740732075662	-0.0074768066	
1740732075663	-0.01663208	
1740732075664	-0.024108887	
1740732075665	-0.028533936	
1740732075666	-0.02609253	
1740732075667	-0.0060272217	
1740732075668	0.006713867	
1740732075669	0.023803711	
1740732075670	0.026321411	
1740732075671	0.012054443	
1740732075672	0.03982544	
1740732075673	0.037765503	
1740732075674	0.0016784668	
1740732075675	1.5258789E-4	
1740732075676	-0.0051879883	
1740732075677	-0.018157959	
1740732075678	-0.028686523	
1740732075679	-0.06011963	
1740732075680	-0.07369995	
1740732075681	-0.023803711	
1740732075682	0.049209595	
1740732075683	0.061264038	
1740732075684	0.038146973	
1740732075685	0.025177002	
1740732075686	0.0077056885	
1740732075687	0.0060272217	
1740732075688	0.0030517578	
1740732075689	-0.0037384033	
1740732075690	0.014419556	
1740732075691	0.032043457	
1740732075692	0.01083374	
1740732075693	-0.0793457	
1740732075694	-0.15762329	
1740732075695	-0.10765076	
1740732075696	-0.010757446	
1740732075697	0.014343262	
1740732075698	0.01449585	
1740732075699	0.054397583	
1740732075700	0.13313293	
1740732075701	0.1903534	
1740732075702	0.12466431	
1740732075703	0.014724731	
1740732075704	-0.039596558	
1740732075705	-0.04837036	
1740732075706	-0.034179688	
1740732075707	-0.04135132	
1740732075708	-0.033950806	
1740732075709	-0.032196045	
1740732075710	-0.049972534	
1740732075711	-0.038223267	
1740732075712	-0.008850098	
1740732075713	-0.0035858154	
1740732075714	0.015640259	
1740732075715	-8.392334E-4	
1740732075716	-0.06645203	
1740732075717	-0.082473755	
1740732075718	-0.07675171	
1740732075719	-0.043029785	
1740732075720	9.918213E-4	
1740732075721	-0.004348755	
1740732075722	0.002746582	
1740732075723	0.015716553	
1740732075724	0.015106201	
1740732075725	0.02029419	
1740732075726	0.023345947	
1740732075727	0.07270813	
1740732075728	0.14419556	
1740732075729	0.16029358	
1740732075730	0.1537323	
1740732075731	0.13412476	
1740732075732	0.05935669	
1740732075733	0.007171631	
1740732075734	0.0047302246	
1740732075735	-0.01838684	
1740732075736	-0.06523132	
1740732075737	-0.12512207	
1740732075738	-0.18013	
1740732075739	-0.17425537	
1740732075740	-0.114593506	
1740732075741	-0.028076172	
1740732075742	0.027770996	
1740732075743	0.052871704	
1740732075744	0.04776001	
1740732075745	0.023040771	
1740732075746	0.009460449	
1740732075747	-0.029907227	
1740732075748	-0.05996704	
1740732075749	-0.05393982	
1740732075750	-0.029830933	
1740732075751	0.032806396	
1740732075752	0.056228638	
1740732075753	0.02670288	
1740732075754	-5.340576E-4	
1740732075755	0.020599365	
1740732075756	0.033950806	
1740732075757	0.008087158	
1740732075758	-0.0051116943	
1740732075759	-0.04005432	
1740732075760	-0.035095215	
1740732075761	0.0064849854	
1740732075762	0.02128601	
1740732075763	0.025177002	
1740732075764	0.014724731	
1740732075765	0.00793457	
1740732075766	-0.010528564	
1740732075767	-0.02281189	
1740732075768	0.023117065	
1740732075769	0.06568909	
1740732075770	0.06904602	
1740732075771	0.08911133	
1740732075772	0.10574341	
1740732075773	0.0970459	
1740732075774	0.03868103	
1740732075775	-0.037612915	
1740732075776	-0.04951477	
1740732075777	-0.049819946	
1740732075778	-0.043792725	
1740732075779	-0.013198853	
1740732075780	-0.022964478	
1740732075781	-0.04562378	
1740732075782	-0.07369995	
1740732075783	-0.11161804	
1740732075784	-0.12962341	
1740732075785	-0.12992859	
1740732075786	-0.106658936	
1740732075787	-0.07354736	
1740732075788	-0.023803711	
1740732075789	0.0032043457	
1740732075790	0.017852783	
1740732075791	0.07751465	
1740732075792	0.14053345	
1740732075793	0.16181946	
1740732075794	0.13755798	
1740732075795	0.09559631	
1740732075796	0.06828308	
1740732075797	0.044937134	
1740732075798	-0.0047302246	
1740732075799	-0.036697388	
1740732075800	-0.025558472	
1740732075801	-0.012435913	
1740732075802	-0.0048828125	
1740732075803	-0.0118255615	
1740732075804	-0.014877319	
1740732075805	-0.012664795	
1740732075806	-0.02243042	
1740732075807	-0.016098022	
1740732075808	-0.018157959	
1740732075809	-0.014419556	
1740732075810	-0.010299683	
1740732075811	-0.012359619	
1740732075812	-0.005722046	
1740732075813	-0.0035858154	
1740732075814	-0.0031280518	
1740732075815	-0.007858276	
1740732075816	-0.010910034	
1740732075817	-0.012512207	
1740732075818	-0.0090789795	
1740732075819	0.0033569336	
1740732075820	0.0017547607	
1740732075821	0.0038146973	
1740732075822	0.010223389	
1740732075823	0.013580322	
1740732075824	0.011138916	
1740732075825	0.004196167	
1740732075826	0.0077056885	
1740732075827	0.0025177002	
1740732075828	0.00289917	
1740732075829	-0.0023651123	
1740732075830	-0.009307861	
1740732075831	-0.006790161	
1740732075832	-0.009918213	
1740732075833	-0.0030517578	
1740732075834	-6.866455E-4	
1740732075835	0.008926392	
1740732075836	0.010223389	
1740732075837	-0.00579834	
1740732075838	0.0046539307	
1740732075839	0.0022125244	
1740732075840	-0.0050354004	
1740732075841	0.007171631	
1740732075842	-0.0012969971	
1740732075843	-0.003967285	
1740732075844	-0.0012969971	
1740732075845	-0.0021362305	
1740732075846	0.0018310547	
1740732075847	-0.0019073486	
1740732075848	0.004272461	
1740732075849	0.0018310547	
1740732075850	-0.0023651123	
1740732075851	0.003967285	
1740732075852	-8.392334E-4	
1740732075853	-0.009002686	
1740732075854	-0.004196167	
1740732075855	0.0064849854	
1740732075856	0.010910034	
1740732075857	0.0073242188	
1740732075858	0.004425049	
1740732075859	6.1035156E-4	
1740732075860	0.0024414062	
1740732075861	0.0077056885	
1740732075862	-0.0015258789	
1740732075863	0.005264282	
1740732075864	0.0050354004	
1740732075865	0.0032806396	
1740732075866	0.003967285	
1740732075867	-0.0025939941	
1740732075868	-0.0036621094	
1740732075869	-0.0012969971	
1740732075870	0.002670288	
1740732075871	0.004272461	
1740732075872	0.0022125244	
1740732075873	0.0035095215	
1740732075874	0.006942749	
1740732075875	-0.0019836426	
1740732075876	-0.0012969971	
1740732075877	0.002822876	
1740732075878	-0.005493164	
1740732075879	-0.010223389	
1740732075880	-0.014953613	
1740732075881	-0.0076293945	
1740732075882	-0.004119873	
1740732075883	-0.004196167	
1740732075884	0.005874634	
1740732075885	0.0073242188	
1740732075886	0.0012969971	
1740732075887	0.0022888184	
1740732075888	-0.0011444092	
1740732075889	7.6293945E-4	
1740732075890	0.0104522705	
1740732075891	7.6293945E-5	
1740732075892	-0.0036621094	
1740732075893	-0.008544922	
1740732075894	-0.0025177002	
1740732075895	-0.0035095215	
1740732075896	-0.01335144	
1740732075897	-0.0104522705	
1740732075898	0.004119873	
1740732075899	0.01914978	
1740732075900	0.0119018555	
1740732075901	0.008163452	
1740732075902	-0.0020599365	
1740732075903	-0.0064086914	
1740732075904	-0.0048065186	
1740732075905	-0.009841919	
1740732075906	0.0051116943	
1740732075907	0.0050354004	
1740732075908	-0.004043579	
1740732075909	-0.009765625	
1740732075910	-0.017547607	
1740732075911	0.0074005127	
1740732075912	0.044784546	
1740732075913	0.03227234	
1740732075914	0.0029754639	
1740732075915	0.0035095215	
1740732075916	0.031051636	
1740732075917	0.012054443	
1740732075918	0.008239746	
1740732075919	0.024414062	
1740732075920	-0.0074005127	
1740732075921	-0.023422241	
1740732075922	-0.03479004	
1740732075923	-0.07888794	
1740732075924	-0.09315491	
1740732075925	-0.04737854	
1740732075926	0.006713867	
1740732075927	0.0076293945	
1740732075928	0.05508423	
1740732075929	0.09788513	
1740732075930	0.062026978	
1740732075931	0.0051879883	
1740732075932	0.013580322	
1740732075933	0.046081543	
1740732075934	0.031585693	
1740732075935	0.027008057	
1740732075936	0.0037384033	
1740732075937	-0.03692627	
1740732075938	-0.046691895	
1740732075939	-0.042266846	
1740732075940	-0.027694702	
1740732075941	-0.0365448	
1740732075942	-0.050964355	
1740732075943	-0.053710938	
1740732075944	-0.040359497	
1740732075945	0.038146973	
1740732075946	0.086746216	
1740732075947	0.03326416	
1740732075948	-0.0037384033	
1740732075949	0.0132751465	
1740732075950	-0.016403198	
1740732075951	-0.010299683	
1740732075952	0.011520386	
1740732075953	-0.009460449	
1740732075954	0.0036621094	
1740732075955	0.0017547607	
1740732075956	-0.0021362305	
1740732075957	0.011978149	
1740732075958	0.0032043457	
1740732075959	0.0	
1740732075960	0.005722046	
1740732075961	0.0074768066	
1740732075962	-3.0517578E-4	
1740732075963	0.0019836426	
1740732075964	0.0050354004	
1740732075965	-0.00289917	
1740732075966	0.0050354004	
1740732075967	-0.0049591064	
1740732075968	-0.0016021729	
1740732075969	8.392334E-4	
1740732075970	0.004196167	
1740732075971	0.00793457	
1740732075972	0.0074005127	
1740732075973	-0.0016021729	
1740732075974	0.0060272217	
1740732075975	0.016174316	
1740732075976	0.010757446	
1740732075977	0.011444092	
1740732075978	0.009384155	
1740732075979	-0.011138916	
1740732075980	-0.020446777	
1740732075981	-0.0074768066	
1740732075982	-0.017089844	
1740732075983	-0.017242432	
1740732075984	-0.011138916	
1740732075985	-0.019683838	
1740732075986	-0.0074005127	
1740732075987	0.010375977	
1740732075988	0.0025177002	
1740732075989	0.0011444092	
1740732075990	0.00289917	
1740732075991	0.0033569336	
1740732075992	0.008468628	
1740732075993	0.005645752	
1740732075994	0.0073242188	
1740732075995	-0.016403198	
1740732075996	-0.023269653	
1740732075997	0.007019043	
1740732075998	0.010757446	
1740732075999	-0.024032593	
1740732076000	-0.03326416	
1740732076001	0.018234253	
1740732076002	0.05645752	
1740732076003	0.049591064	
1740732076004	0.038375854	
1740732076005	0.014419556	
1740732076006	0.022125244	
1740732076007	0.07827759	
1740732076008	0.069732666	
1740732076009	0.04058838	
1740732076010	0.033111572	
1740732076011	-0.005569458	
1740732076012	-0.05218506	
1740732076013	-0.0592041	
1740732076014	-0.05508423	
1740732076015	-0.11909485	
1740732076016	-0.14511108	
1740732076017	-0.07575989	
1740732076018	-0.036697388	
1740732076019	-0.026168823	
1740732076020	-0.019989014	
1740732076021	-0.0066375732	
1740732076022	0.045394897	
1740732076023	0.09689331	
1740732076024	0.117874146	
1740732076025	0.0680542	
1740732076026	0.0023651123	
1740732076027	0.03189087	
1740732076028	0.03768921	
1740732076029	-0.011444092	
1740732076030	-0.023040771	
1740732076031	-0.050048828	
1740732076032	-0.051193237	
1740732076033	-0.033416748	
1740732076034	-0.06462097	
1740732076035	-0.044021606	
1740732076036	0.013504028	
1740732076037	0.039138794	
1740732076038	0.10864258	
1740732076039	0.12680054	
1740732076040	0.045547485	
1740732076041	-0.0390625	
1740732076042	-0.059280396	
1740732076043	0.0059509277	
1740732076044	-0.008773804	
1740732076045	-0.10192871	
1740732076046	-0.11985779	
1740732076047	-0.15304565	
1740732076048	-0.12802124	
1740732076049	-0.03616333	
1740732076050	0.008239746	
1740732076051	0.10826111	
1740732076052	0.21774292	
1740732076053	0.22377014	
1740732076054	0.17593384	
1740732076055	0.12695312	
1740732076056	0.1461792	
1740732076057	0.18470764	
1740732076058	0.16853333	
1740732076059	0.06980896	
1740732076060	-0.14297485	
1740732076061	-0.24368286	
1740732076062	-0.17974854	
1740732076063	-0.19340515	
1740732076064	-0.2155304	
1740732076065	-0.13244629	
1740732076066	0.004196167	
1740732076067	0.043411255	
1740732076068	-0.07713318	
1740732076069	-0.2091217	
1740732076070	-0.21781921	
1740732076071	-0.094070435	
1740732076072	0.06919861	
1740732076073	0.2003479	
1740732076074	0.18669128	
1740732076075	0.2027893	
1740732076076	0.26145935	
1740732076077	0.20988464	
1740732076078	0.14945984	
1740732076079	0.103530884	
1740732076080	0.055923462	
1740732076081	-0.098724365	
1740732076082	-0.25360107	
1740732076083	-0.26138306	
1740732076084	-0.19256592	
1740732076085	-0.066604614	
1740732076086	0.019836426	
1740732076087	-0.034713745	
1740732076088	-0.05203247	
1740732076089	-0.041732788	
1740732076090	-0.06820679	
1740732076091	-0.08087158	
1740732076092	-0.018844604	
1740732076093	0.024414062	
1740732076094	0.012283325	
1740732076095	0.018310547	
1740732076096	0.029449463	
1740732076097	0.060577393	
1740732076098	0.100631714	
1740732076099	0.086746216	
1740732076100	0.06858826	
1740732076101	0.079422	
1740732076102	0.090026855	
1740732076103	0.07644653	
1740732076104	0.038757324	
1740732076105	0.005874634	
1740732076106	0.009689331	
1740732076107	0.009994507	
1740732076108	0.02319336	
1740732076109	0.041046143	
1740732076110	-0.010757446	
1740732076111	-0.015563965	
1740732076112	0.057144165	
1740732076113	0.04852295	
1740732076114	0.014724731	
1740732076115	0.00289917	
1740732076116	0.013809204	
1740732076117	-0.004272461	
1740732076118	-0.08880615	
1740732076119	-0.117492676	
1740732076120	-0.09819031	
1740732076121	-0.07034302	
1740732076122	-0.047454834	
1740732076123	-0.083465576	
1740732076124	-0.12504578	
1740732076125	-0.077819824	
1740732076126	-0.03517151	
1740732076127	0.011291504	
1740732076128	0.06645203	
1740732076129	0.058288574	
1740732076130	0.0012207031	
1740732076131	-0.022735596	
1740732076132	-0.044021606	
1740732076133	-0.07637024	
1740732076134	-0.042114258	
1740732076135	0.044631958	
1740732076136	0.095214844	
1740732076137	0.036849976	
1740732076138	-0.08735657	
1740732076139	-0.08552551	
1740732076140	0.011520386	
1740732076141	0.1096344	
1740732076142	0.2635193	
1740732076143	0.25474548	
1740732076144	0.12542725	
1740732076145	0.10734558	
1740732076146	0.1133728	
1740732076147	0.15930176	
1740732076148	0.061645508	
1740732076149	-0.1084137	
1740732076150	-0.11405945	
1740732076151	-0.14320374	
1740732076152	-0.13420105	
1740732076153	-0.054397583	
1740732076154	-0.013961792	
1740732076155	-0.039138794	
1740732076156	-0.16670227	
1740732076157	-0.28167725	
1740732076158	-0.30670166	
1740732076159	-0.15274048	
1740732076160	0.07736206	
1740732076161	0.21972656	
1740732076162	0.27290344	
1740732076163	0.1587677	
1740732076164	0.016403198	
1740732076165	-0.02357483	
1740732076166	-0.044403076	
1740732076167	-0.057525635	
1740732076168	0.011138916	
1740732076169	0.074157715	
1740732076170	0.16296387	
1740732076171	0.16029358	
1740732076172	-0.064086914	
1740732076173	-0.12390137	
1740732076174	-0.032424927	
1740732076175	-0.022277832	
1740732076176	0.06401062	
1740732076177	0.036087036	
1740732076178	-0.059509277	
1740732076179	-0.044326782	
1740732076180	-0.06248474	
1740732076181	-0.1171875	
1740732076182	-0.111846924	
1740732076183	-0.041503906	
1740732076184	-0.01121521	
1740732076185	-0.023651123	
1740732076186	-9.918213E-4	
1740732076187	-0.009231567	
1740732076188	0.033798218	
1740732076189	0.09101868	
1740732076190	0.07484436	
1740732076191	0.070495605	
1740732076192	0.027389526	
1740732076193	0.019836426	
1740732076194	0.07713318	
1740732076195	0.07423401	
1740732076196	0.017089844	
1740732076197	0.02456665	
1740732076198	0.083618164	
1740732076199	-0.011672974	
1740732076200	-0.061950684	
1740732076201	-0.08590698	
1740732076202	-0.09529114	
1740732076203	0.036315918	
1740732076204	0.047531128	
1740732076205	0.012435913	
1740732076206	0.0793457	
1740732076207	0.1410675	
1740732076208	0.11199951	
1740732076209	-0.04043579	
1740732076210	-0.16731262	
1740732076211	-0.105285645	
1740732076212	-0.058288574	
1740732076213	-0.114974976	
1740732076214	-0.026931763	
1740732076215	0.04196167	
1740732076216	0.115356445	
1740732076217	0.2657318	
1740732076218	0.24490356	
1740732076219	0.02571106	
1740732076220	-0.31044006	
1740732076221	-0.32562256	
1740732076222	-0.1462555	
1740732076223	-0.18165588	
1740732076224	-0.22613525	
1740732076225	-0.17578125	
1740732076226	0.08987427	
1740732076227	0.23246765	
1740732076228	0.013198853	
1740732076229	-0.063705444	
1740732076230	-0.09017944	
1740732076231	0.036621094	
1740732076232	0.17433167	
1740732076233	0.08148193	
1740732076234	0.317688	
1740732076235	0.4195404	
1740732076236	0.29060364	
1740732076237	0.17524719	
1740732076238	-0.032577515	
1740732076239	-0.009765625	
1740732076240	-0.084228516	
1740732076241	-0.2344513	
1740732076242	-0.15960693	
1740732076243	-0.10345459	
1740732076244	-0.09895325	
1740732076245	-0.1878357	
1740732076246	-0.21537781	
1740732076247	-0.11680603	
1740732076248	-0.024337769	
1740732076249	0.13587952	
1740732076250	0.15426636	
1740732076251	-0.001373291	
1740732076252	-0.025787354	
1740732076253	0.006866455	
1740732076254	0.011291504	
1740732076255	-0.046081543	
1740732076256	-0.17662048	
1740732076257	-0.18745422	
1740732076258	-0.08529663	
1740732076259	0.022125244	
1740732076260	-0.0059509277	
1740732076261	0.012893677	
1740732076262	0.25001526	
1740732076263	0.2735138	
1740732076264	0.22415161	
1740732076265	0.2482605	
1740732076266	0.050811768	
1740732076267	0.021591187	
1740732076268	0.13275146	
1740732076269	-0.029754639	
1740732076270	-0.19615173	
1740732076271	-0.27549744	
1740732076272	-0.27252197	
1740732076273	-0.12779236	
1740732076274	-0.009689331	
1740732076275	0.11039734	
1740732076276	0.24559021	
1740732076277	0.2960968	
1740732076278	0.113983154	
1740732076279	-0.13755798	
