# OpenSignals Text File Format
# {"00:80:E1:26:9F:85":{"sensor":["EMG"],"device name":"00:80:E1:26:9F:85","column":["timestamp","EMG"],"sync interval":2,"time":"13:11:22","comments":"","keywords":"","device connection":"BLE00:80:E1:26:9F:85","channels":[0],"date":"2025-01-17","mode":0,"digital IO":[],"firmware version":259,"device":"musclebanplux","position":0,"sampling rate":1000,"label":["EMG"],"resolution":[16],"special":[{}],"sleeve color":["UNKNOWN"]}}
# EndOfHeader
1737115883227	-0.006790161	
1737115883228	-0.0060272217	
1737115883229	-9.1552734E-4	
1737115883230	-4.5776367E-4	
1737115883231	0.0010681152	
1737115883232	0.0048828125	
1737115883233	0.0017547607	
1737115883234	0.0059509277	
1737115883235	0.010757446	
1737115883236	0.003967285	
1737115883237	0.0012207031	
1737115883238	0.0050354004	
1737115883239	0.006790161	
1737115883240	-6.1035156E-4	
1737115883241	-0.003967285	
1737115883242	-3.0517578E-4	
1737115883243	-0.0024414062	
1737115883244	-0.0045776367	
1737115883245	-0.0048065186	
1737115883246	0.0010681152	
1737115883247	0.0033569336	
1737115883248	-6.1035156E-4	
1737115883249	0.001449585	
1737115883250	-3.8146973E-4	
1737115883251	-6.1035156E-4	
1737115883252	-0.0066375732	
1737115883253	-0.0132751465	
1737115883254	-0.0018310547	
1737115883255	9.918213E-4	
1737115883256	-9.918213E-4	
1737115883257	3.0517578E-4	
1737115883258	-0.00289917	
1737115883259	0.005264282	
1737115883260	0.008773804	
1737115883261	0.0038909912	
1737115883262	0.0012969971	
1737115883263	-6.866455E-4	
1737115883264	0.0010681152	
1737115883265	-0.0010681152	
1737115883266	-0.0019836426	
1737115883267	-0.0037384033	
1737115883268	-0.0064849854	
1737115883269	2.2888184E-4	
1737115883270	0.006942749	
1737115883271	0.0038909912	
1737115883272	0.004501343	
1737115883273	0.004348755	
1737115883274	3.0517578E-4	
1737115883275	0.008468628	
1737115883276	0.0038909912	
1737115883277	-0.0059509277	
1737115883278	0.0	
1737115883279	-0.002670288	
1737115883280	-0.00831604	
1737115883281	-0.0031280518	
1737115883282	-4.5776367E-4	
1737115883283	-0.00579834	
1737115883284	-0.005722046	
1737115883285	0.004425049	
1737115883286	0.008392334	
1737115883287	-0.002822876	
1737115883288	-0.0064849854	
1737115883289	-9.1552734E-4	
1737115883290	3.8146973E-4	
1737115883291	0.0038146973	
1737115883292	0.00541687	
1737115883293	0.004196167	
1737115883294	-0.0047302246	
1737115883295	-0.0046539307	
1737115883296	0.0020599365	
1737115883297	-0.0023651123	
1737115883298	0.0032806396	
1737115883299	0.0038909912	
1737115883300	-0.0029754639	
1737115883301	-0.005340576	
1737115883302	-0.010070801	
1737115883303	-0.0023651123	
1737115883304	0.005493164	
1737115883305	0.0024414062	
1737115883306	0.0025939941	
1737115883307	0.005264282	
1737115883308	0.0020599365	
1737115883309	-0.0022125244	
1737115883310	9.918213E-4	
1737115883311	0.0038146973	
1737115883312	-7.6293945E-5	
1737115883313	6.1035156E-4	
1737115883314	0.0051116943	
1737115883315	-0.0012207031	
1737115883316	-0.005874634	
1737115883317	6.1035156E-4	
1737115883318	0.0047302246	
1737115883319	0.005493164	
1737115883320	0.002822876	
1737115883321	0.0048828125	
1737115883322	0.002822876	
1737115883323	-0.0065612793	
1737115883324	-0.0064849854	
1737115883325	-0.007095337	
1737115883326	-0.009613037	
1737115883327	-0.010528564	
1737115883328	-0.0049591064	
1737115883329	0.0051879883	
1737115883330	0.01083374	
1737115883331	0.008773804	
1737115883332	-0.0012969971	
1737115883333	-0.0025177002	
1737115883334	-0.0012969971	
1737115883335	-0.0011444092	
1737115883336	-3.8146973E-4	
1737115883337	-0.004119873	
1737115883338	-0.0025939941	
1737115883339	-0.001449585	
1737115883340	0.002670288	
1737115883341	0.009918213	
1737115883342	0.007171631	
1737115883343	-0.0022888184	
1737115883344	-0.00289917	
1737115883345	0.0022125244	
1737115883346	-0.003967285	
1737115883347	-0.0038146973	
1737115883348	0.0019836426	
1737115883349	0.0012207031	
1737115883350	-0.0029754639	
1737115883351	-0.0059509277	
1737115883352	-9.1552734E-4	
1737115883353	0.007019043	
1737115883354	0.007247925	
1737115883355	-0.0012969971	
1737115883356	-0.0019836426	
1737115883357	0.0011444092	
1737115883358	-0.0036621094	
1737115883359	-0.0016784668	
1737115883360	-1.5258789E-4	
1737115883361	-0.0022125244	
1737115883362	-0.004425049	
1737115883363	-0.0035858154	
1737115883364	0.00793457	
1737115883365	0.004501343	
1737115883366	-5.340576E-4	
1737115883367	0.009002686	
1737115883368	0.005264282	
1737115883369	-9.918213E-4	
1737115883370	-0.0025177002	
1737115883371	-0.0025939941	
1737115883372	0.0032806396	
1737115883373	0.0	
1737115883374	-0.005874634	
1737115883375	3.0517578E-4	
1737115883376	-9.918213E-4	
1737115883377	-0.0034332275	
1737115883378	0.002746582	
1737115883379	-0.0031280518	
1737115883380	-0.0063323975	
1737115883381	0.004272461	
1737115883382	-3.8146973E-4	
1737115883383	-0.007171631	
1737115883384	-0.005722046	
1737115883385	-0.001373291	
1737115883386	0.007247925	
1737115883387	0.002822876	
1737115883388	0.0022888184	
1737115883389	-0.0032043457	
1737115883390	-0.008773804	
1737115883391	0.0032043457	
1737115883392	0.00289917	
1737115883393	0.0023651123	
1737115883394	0.002822876	
1737115883395	0.001449585	
1737115883396	0.009689331	
1737115883397	0.00541687	
1737115883398	9.918213E-4	
1737115883399	0.0038146973	
1737115883400	-0.009841919	
1737115883401	-0.013656616	
1737115883402	0.0031280518	
1737115883403	0.004501343	
1737115883404	0.005722046	
1737115883405	0.0073242188	
1737115883406	-0.0035858154	
1737115883407	7.6293945E-5	
1737115883408	-0.0017547607	
1737115883409	-0.0051879883	
1737115883410	0.0030517578	
1737115883411	-0.0019836426	
1737115883412	-0.0029754639	
1737115883413	-0.004272461	
1737115883414	-0.008087158	
1737115883415	0.0022125244	
1737115883416	0.0019836426	
1737115883417	-0.0020599365	
1737115883418	0.0033569336	
1737115883419	0.0021362305	
1737115883420	-4.5776367E-4	
1737115883421	2.2888184E-4	
1737115883422	0.001449585	
1737115883423	0.0051879883	
1737115883424	-6.866455E-4	
1737115883425	-0.005493164	
1737115883426	0.006713867	
1737115883427	0.007095337	
1737115883428	-6.1035156E-4	
1737115883429	-3.0517578E-4	
1737115883430	-0.00793457	
1737115883431	-0.010986328	
1737115883432	-0.0062561035	
1737115883433	-0.002670288	
1737115883434	0.004348755	
1737115883435	0.012893677	
1737115883436	0.009765625	
1737115883437	-0.008544922	
1737115883438	-0.008239746	
1737115883439	0.0024414062	
1737115883440	0.0020599365	
1737115883441	0.0012969971	
1737115883442	0.001373291	
1737115883443	-9.1552734E-4	
1737115883444	-0.002822876	
1737115883445	0.0064849854	
1737115883446	0.008239746	
1737115883447	-0.0035858154	
1737115883448	-0.0059509277	
1737115883449	-0.0020599365	
1737115883450	-1.5258789E-4	
1737115883451	3.8146973E-4	
1737115883452	-3.0517578E-4	
1737115883453	-0.007171631	
1737115883454	-0.008773804	
1737115883455	-0.0018310547	
1737115883456	-0.0010681152	
1737115883457	0.010986328	
1737115883458	0.01625061	
1737115883459	-0.0015258789	
1737115883460	9.1552734E-4	
1737115883461	0.0016021729	
1737115883462	-0.006942749	
1737115883463	0.003967285	
1737115883464	0.0034332275	
1737115883465	-0.0023651123	
1737115883466	-0.0019073486	
1737115883467	-0.002822876	
1737115883468	-0.005264282	
1737115883469	-0.006942749	
1737115883470	-0.0020599365	
1737115883471	-7.6293945E-4	
1737115883472	0.006942749	
1737115883473	0.008621216	
1737115883474	0.0035095215	
1737115883475	0.0061035156	
1737115883476	-0.002746582	
1737115883477	-0.006713867	
1737115883478	-0.0033569336	
1737115883479	-0.0016784668	
1737115883480	0.008926392	
1737115883481	0.004272461	
1737115883482	-0.0046539307	
1737115883483	-0.0017547607	
1737115883484	-0.004196167	
1737115883485	-0.0019836426	
1737115883486	-0.0012207031	
1737115883487	-0.0021362305	
1737115883488	0.0012207031	
1737115883489	2.2888184E-4	
1737115883490	0.0023651123	
1737115883491	6.866455E-4	
1737115883492	-0.0016021729	
1737115883493	-0.0048828125	
1737115883494	-0.0038909912	
1737115883495	0.0051879883	
1737115883496	-0.0031280518	
1737115883497	-0.008621216	
1737115883498	-0.0011444092	
1737115883499	0.0	
1737115883500	0.0017547607	
1737115883501	0.008239746	
1737115883502	0.0090789795	
1737115883503	0.0011444092	
1737115883504	-2.2888184E-4	
1737115883505	0.0048065186	
1737115883506	0.0036621094	
1737115883507	0.0049591064	
1737115883508	0.0077819824	
1737115883509	0.0012969971	
1737115883510	-0.0050354004	
1737115883511	-0.0065612793	
1737115883512	-0.0050354004	
1737115883513	0.0017547607	
1737115883514	-1.5258789E-4	
1737115883515	-0.0073242188	
1737115883516	-0.0038909912	
1737115883517	0.0021362305	
1737115883518	-0.0022125244	
1737115883519	-0.00579834	
1737115883520	-0.005645752	
1737115883521	-0.008010864	
1737115883522	9.1552734E-4	
1737115883523	0.0025177002	
1737115883524	-0.0018310547	
1737115883525	0.00541687	
1737115883526	0.0036621094	
1737115883527	5.340576E-4	
1737115883528	0.0	
1737115883529	-0.0019073486	
1737115883530	9.1552734E-4	
1737115883531	0.0015258789	
1737115883532	0.0034332275	
1737115883533	0.0035095215	
1737115883534	0.0019073486	
1737115883535	-3.8146973E-4	
1737115883536	-0.0010681152	
1737115883537	0.005340576	
1737115883538	0.0064086914	
1737115883539	0.009613037	
1737115883540	0.006866455	
1737115883541	-0.0023651123	
1737115883542	0.002746582	
1737115883543	-0.004043579	
1737115883544	-0.013122559	
1737115883545	-0.0047302246	
1737115883546	-0.0035858154	
1737115883547	-0.0045776367	
1737115883548	-0.001373291	
1737115883549	-0.0025177002	
1737115883550	-0.0034332275	
1737115883551	-0.0051116943	
1737115883552	-0.0031280518	
1737115883553	0.009536743	
1737115883554	0.012817383	
1737115883555	0.0011444092	
1737115883556	-0.00793457	
1737115883557	-0.002746582	
1737115883558	-0.0016784668	
1737115883559	-9.1552734E-4	
1737115883560	0.00579834	
1737115883561	-3.8146973E-4	
1737115883562	2.2888184E-4	
1737115883563	0.0030517578	
1737115883564	-0.0021362305	
1737115883565	-0.0038909912	
1737115883566	0.0010681152	
1737115883567	0.0059509277	
1737115883568	3.8146973E-4	
1737115883569	-0.0038146973	
1737115883570	-0.0036621094	
1737115883571	-0.001373291	
1737115883572	0.0037384033	
1737115883573	0.004501343	
1737115883574	0.0015258789	
1737115883575	-3.0517578E-4	
1737115883576	0.0021362305	
1737115883577	2.2888184E-4	
1737115883578	-0.0032806396	
1737115883579	-2.2888184E-4	
1737115883580	-3.8146973E-4	
1737115883581	4.5776367E-4	
1737115883582	0.0019073486	
1737115883583	0.0016021729	
1737115883584	-7.6293945E-4	
1737115883585	-0.004043579	
1737115883586	0.0024414062	
1737115883587	-0.0025177002	
1737115883588	-0.0073242188	
1737115883589	-0.0019836426	
1737115883590	-0.0012207031	
1737115883591	0.0035095215	
1737115883592	7.6293945E-4	
1737115883593	-0.001449585	
1737115883594	7.6293945E-5	
1737115883595	-0.001373291	
1737115883596	5.340576E-4	
1737115883597	0.0016784668	
1737115883598	0.0045776367	
1737115883599	0.0016784668	
1737115883600	-0.0012969971	
1737115883601	-9.918213E-4	
1737115883602	-0.002822876	
1737115883603	0.001449585	
1737115883604	0.0032043457	
1737115883605	0.0025939941	
1737115883606	0.004043579	
1737115883607	-0.0046539307	
1737115883608	-0.005493164	
1737115883609	0.00289917	
1737115883610	0.002746582	
1737115883611	0.002746582	
1737115883612	-0.0051116943	
1737115883613	-0.010299683	
1737115883614	0.0016021729	
1737115883615	0.009155273	
1737115883616	0.009307861	
1737115883617	0.0046539307	
1737115883618	2.2888184E-4	
1737115883619	8.392334E-4	
1737115883620	-0.0075531006	
1737115883621	-0.009231567	
1737115883622	0.004043579	
1737115883623	0.009231567	
1737115883624	0.0034332275	
1737115883625	-6.866455E-4	
1737115883626	-0.0010681152	
1737115883627	-0.0062561035	
1737115883628	-0.009613037	
1737115883629	-0.0035095215	
1737115883630	-8.392334E-4	
1737115883631	-0.0048828125	
1737115883632	-0.0038146973	
1737115883633	0.0023651123	
1737115883634	7.6293945E-5	
1737115883635	-0.0047302246	
1737115883636	-0.0012207031	
1737115883637	0.0024414062	
1737115883638	0.0064086914	
1737115883639	0.0051116943	
1737115883640	-6.866455E-4	
1737115883641	0.004272461	
1737115883642	0.0011444092	
1737115883643	1.5258789E-4	
1737115883644	0.011367798	
1737115883645	-0.0035858154	
1737115883646	-0.0118255615	
1737115883647	-0.0031280518	
1737115883648	-0.009460449	
1737115883649	0.0015258789	
1737115883650	0.00831604	
1737115883651	2.2888184E-4	
1737115883652	0.006790161	
1737115883653	0.0064849854	
1737115883654	0.0024414062	
1737115883655	1.5258789E-4	
1737115883656	-0.002670288	
1737115883657	0.008468628	
1737115883658	0.009536743	
1737115883659	-0.002670288	
1737115883660	-0.011520386	
1737115883661	-0.015258789	
1737115883662	-0.011291504	
1737115883663	-0.009307861	
1737115883664	0.004272461	
1737115883665	0.01411438	
1737115883666	0.0021362305	
1737115883667	0.005874634	
1737115883668	0.007171631	
1737115883669	-0.0051879883	
1737115883670	-4.5776367E-4	
1737115883671	0.004196167	
1737115883672	-9.918213E-4	
1737115883673	-0.00579834	
1737115883674	-0.0029754639	
1737115883675	0.002822876	
1737115883676	-0.0065612793	
1737115883677	-0.011291504	
1737115883678	-0.006942749	
1737115883679	-0.0034332275	
1737115883680	0.011749268	
1737115883681	0.02319336	
1737115883682	0.018081665	
1737115883683	0.005264282	
1737115883684	-0.002746582	
1737115883685	-0.004272461	
1737115883686	-0.008773804	
1737115883687	-0.010986328	
1737115883688	-0.006713867	
1737115883689	-0.004348755	
1737115883690	-6.1035156E-4	
1737115883691	-0.0016784668	
1737115883692	-0.011978149	
1737115883693	-0.004119873	
1737115883694	0.012512207	
1737115883695	0.0035095215	
1737115883696	-0.008010864	
1737115883697	-0.0038146973	
1737115883698	-0.0016021729	
1737115883699	0.0037384033	
1737115883700	0.00869751	
1737115883701	0.008621216	
1737115883702	0.015792847	
1737115883703	0.004425049	
1737115883704	-0.008392334	
1737115883705	-0.0045776367	
1737115883706	-0.0075531006	
1737115883707	-0.0018310547	
1737115883708	9.918213E-4	
1737115883709	-6.866455E-4	
1737115883710	0.0048065186	
1737115883711	0.0048828125	
1737115883712	0.0025177002	
1737115883713	7.6293945E-4	
1737115883714	0.0022888184	
1737115883715	0.0022125244	
1737115883716	0.004043579	
1737115883717	-2.2888184E-4	
1737115883718	-0.006942749	
1737115883719	-0.0018310547	
1737115883720	-0.004272461	
1737115883721	-0.0035095215	
1737115883722	-0.009841919	
1737115883723	-0.017471313	
1737115883724	-0.00289917	
1737115883725	0.0031280518	
1737115883726	0.009460449	
1737115883727	0.01586914	
1737115883728	0.0077819824	
1737115883729	0.0061798096	
1737115883730	0.007019043	
1737115883731	-0.0038909912	
1737115883732	-0.008392334	
1737115883733	-0.004043579	
1737115883734	-0.010604858	
1737115883735	-0.006942749	
1737115883736	2.2888184E-4	
1737115883737	-0.005264282	
1737115883738	0.0023651123	
1737115883739	0.004501343	
1737115883740	-2.2888184E-4	
1737115883741	0.0025939941	
1737115883742	-0.0022888184	
1737115883743	-8.392334E-4	
1737115883744	0.0021362305	
1737115883745	-0.0035858154	
1737115883746	0.0061035156	
1737115883747	0.019302368	
1737115883748	0.0035858154	
1737115883749	-0.0059509277	
1737115883750	0.005874634	
1737115883751	-0.0011444092	
1737115883752	-0.007095337	
1737115883753	-9.1552734E-4	
1737115883754	0.0022888184	
1737115883755	0.007019043	
1737115883756	-0.0010681152	
1737115883757	-0.0077819824	
1737115883758	-0.004348755	
1737115883759	-0.009994507	
1737115883760	-0.0075531006	
1737115883761	-0.002670288	
1737115883762	-0.0017547607	
1737115883763	0.0064086914	
1737115883764	0.0018310547	
1737115883765	-0.0019073486	
1737115883766	-6.1035156E-4	
1737115883767	-0.005569458	
1737115883768	-6.1035156E-4	
1737115883769	0.0064849854	
1737115883770	0.010910034	
1737115883771	0.009002686	
1737115883772	5.340576E-4	
1737115883773	-0.0025939941	
1737115883774	-0.0060272217	
1737115883775	-0.0045776367	
1737115883776	9.918213E-4	
1737115883777	-0.0030517578	
1737115883778	0.002670288	
1737115883779	0.008850098	
1737115883780	-8.392334E-4	
1737115883781	0.0035858154	
1737115883782	0.010147095	
1737115883783	0.001373291	
1737115883784	-0.009613037	
1737115883785	-0.007019043	
1737115883786	-4.5776367E-4	
1737115883787	7.6293945E-4	
1737115883788	0.00579834	
1737115883789	0.0032043457	
1737115883790	0.0021362305	
1737115883791	0.0029754639	
1737115883792	-0.0021362305	
1737115883793	-0.0038146973	
1737115883794	-0.0074005127	
1737115883795	-0.012588501	
1737115883796	-0.009155273	
1737115883797	0.0019073486	
1737115883798	6.866455E-4	
1737115883799	-0.004425049	
1737115883800	0.0017547607	
1737115883801	0.006713867	
1737115883802	0.006790161	
1737115883803	0.0036621094	
1737115883804	-0.0051116943	
1737115883805	-0.0051116943	
1737115883806	0.0019073486	
1737115883807	-0.0023651123	
1737115883808	-0.0011444092	
1737115883809	0.00869751	
1737115883810	0.006942749	
1737115883811	0.0031280518	
1737115883812	0.0	
1737115883813	-0.002746582	
1737115883814	-0.0012207031	
1737115883815	2.2888184E-4	
1737115883816	0.00541687	
1737115883817	-8.392334E-4	
1737115883818	-0.009002686	
1737115883819	-0.0025939941	
1737115883820	-0.0038909912	
1737115883821	-0.0034332275	
1737115883822	0.0032806396	
1737115883823	0.011367798	
1737115883824	0.015716553	
1737115883825	0.010986328	
1737115883826	8.392334E-4	
1737115883827	-0.01701355	
1737115883828	-0.010757446	
1737115883829	5.340576E-4	
1737115883830	0.0025177002	
1737115883831	0.009841919	
1737115883832	-0.0061798096	
1737115883833	-0.015029907	
1737115883834	-0.0064086914	
1737115883835	0.0023651123	
1737115883836	0.010986328	
1737115883837	-0.004425049	
1737115883838	-0.012207031	
1737115883839	0.005264282	
1737115883840	0.0022888184	
1737115883841	-0.0035095215	
1737115883842	3.0517578E-4	
1737115883843	-0.0051116943	
1737115883844	3.8146973E-4	
1737115883845	0.004272461	
1737115883846	-4.5776367E-4	
1737115883847	4.5776367E-4	
1737115883848	2.2888184E-4	
1737115883849	-0.0019836426	
1737115883850	9.1552734E-4	
1737115883851	9.1552734E-4	
1737115883852	-0.00541687	
1737115883853	-4.5776367E-4	
1737115883854	0.005264282	
1737115883855	0.0062561035	
1737115883856	0.004501343	
1737115883857	-8.392334E-4	
1737115883858	0.0038909912	
1737115883859	0.00869751	
1737115883860	0.004425049	
1737115883861	8.392334E-4	
1737115883862	0.004348755	
1737115883863	0.0022125244	
1737115883864	-0.004119873	
1737115883865	-6.866455E-4	
1737115883866	-0.0065612793	
1737115883867	-0.0077819824	
1737115883868	0.0019073486	
1737115883869	-0.0032806396	
1737115883870	-0.0032806396	
1737115883871	0.0047302246	
1737115883872	0.0025177002	
1737115883873	-0.0062561035	
1737115883874	-0.0051879883	
1737115883875	-0.0010681152	
1737115883876	-0.005493164	
1737115883877	-2.2888184E-4	
1737115883878	0.0032043457	
1737115883879	-0.0021362305	
1737115883880	3.8146973E-4	
1737115883881	7.6293945E-4	
1737115883882	9.1552734E-4	
1737115883883	0.0025939941	
1737115883884	-0.0019073486	
1737115883885	0.0021362305	
1737115883886	0.0036621094	
1737115883887	7.6293945E-5	
1737115883888	0.0011444092	
1737115883889	-0.0032806396	
1737115883890	-0.002746582	
1737115883891	4.5776367E-4	
1737115883892	0.0066375732	
1737115883893	0.006942749	
1737115883894	-0.00793457	
1737115883895	-0.008621216	
1737115883896	-0.0029754639	
1737115883897	-0.0017547607	
1737115883898	0.002822876	
1737115883899	0.0036621094	
1737115883900	0.007095337	
1737115883901	0.007247925	
1737115883902	0.0017547607	
1737115883903	-0.004348755	
1737115883904	-0.004348755	
1737115883905	0.0029754639	
1737115883906	0.0	
1737115883907	0.0	
1737115883908	-9.918213E-4	
1737115883909	-0.007095337	
1737115883910	8.392334E-4	
1737115883911	0.0063323975	
1737115883912	0.0064086914	
1737115883913	3.8146973E-4	
1737115883914	-0.0104522705	
1737115883915	-0.0030517578	
1737115883916	0.0017547607	
1737115883917	-0.004425049	
1737115883918	-0.0035858154	
1737115883919	-3.0517578E-4	
1737115883920	0.0036621094	
1737115883921	0.0038146973	
1737115883922	0.0010681152	
1737115883923	0.0029754639	
1737115883924	0.0038909912	
1737115883925	0.0032043457	
1737115883926	3.0517578E-4	
1737115883927	-0.0074005127	
1737115883928	-0.005645752	
1737115883929	-0.0016021729	
1737115883930	-0.0038909912	
1737115883931	-6.1035156E-4	
1737115883932	6.866455E-4	
1737115883933	-0.0020599365	
1737115883934	-0.0021362305	
1737115883935	7.6293945E-5	
1737115883936	0.0023651123	
1737115883937	0.002822876	
1737115883938	0.0015258789	
1737115883939	0.0025939941	
1737115883940	0.007171631	
1737115883941	0.002822876	
1737115883942	-7.6293945E-5	
1737115883943	-7.6293945E-5	
1737115883944	-0.0074005127	
1737115883945	-0.0023651123	
1737115883946	0.0020599365	
1737115883947	-0.0023651123	
1737115883948	-0.001373291	
1737115883949	-7.6293945E-5	
1737115883950	5.340576E-4	
1737115883951	0.0029754639	
1737115883952	0.0033569336	
1737115883953	-3.0517578E-4	
1737115883954	0.0010681152	
1737115883955	0.0025939941	
1737115883956	-4.5776367E-4	
1737115883957	-0.0017547607	
1737115883958	-0.0032806396	
1737115883959	-0.0019836426	
1737115883960	-0.0020599365	
1737115883961	-0.0018310547	
1737115883962	0.0015258789	
1737115883963	0.004043579	
1737115883964	0.005874634	
1737115883965	-0.004043579	
1737115883966	-0.005569458	
1737115883967	0.0036621094	
1737115883968	2.2888184E-4	
1737115883969	-9.1552734E-4	
1737115883970	-0.0015258789	
1737115883971	-0.0035858154	
1737115883972	5.340576E-4	
1737115883973	9.918213E-4	
1737115883974	-0.0012207031	
1737115883975	-0.0032806396	
1737115883976	3.0517578E-4	
1737115883977	0.0021362305	
1737115883978	3.0517578E-4	
1737115883979	3.8146973E-4	
1737115883980	-0.0061035156	
1737115883981	-0.003967285	
1737115883982	0.008163452	
1737115883983	0.018234253	
1737115883984	0.01335144	
1737115883985	-0.007858276	
1737115883986	-0.006790161	
1737115883987	-7.6293945E-5	
1737115883988	-0.008392334	
1737115883989	-5.340576E-4	
1737115883990	0.0010681152	
1737115883991	-0.008087158	
1737115883992	-0.0012207031	
1737115883993	0.0010681152	
1737115883994	-0.001449585	
1737115883995	0.0018310547	
1737115883996	-4.5776367E-4	
1737115883997	-0.002746582	
1737115883998	0.0018310547	
1737115883999	0.0033569336	
1737115884000	-7.6293945E-4	
1737115884001	0.0	
1737115884002	0.0019073486	
1737115884003	0.0010681152	
1737115884004	-7.6293945E-5	
1737115884005	-0.0011444092	
1737115884006	-0.0016784668	
1737115884007	-0.007019043	
1737115884008	-0.005264282	
1737115884009	0.007095337	
1737115884010	0.019378662	
1737115884011	0.017929077	
1737115884012	-0.013885498	
1737115884013	-0.022735596	
1737115884014	0.00289917	
1737115884015	0.004272461	
1737115884016	0.0037384033	
1737115884017	0.001373291	
1737115884018	-0.009155273	
1737115884019	-0.0010681152	
1737115884020	-0.0025177002	
1737115884021	-0.0045776367	
1737115884022	0.0022888184	
1737115884023	-5.340576E-4	
1737115884024	-9.918213E-4	
1737115884025	0.0017547607	
1737115884026	0.0022888184	
1737115884027	0.0015258789	
1737115884028	9.1552734E-4	
1737115884029	0.0017547607	
1737115884030	0.0015258789	
1737115884031	0.0025939941	
1737115884032	0.0063323975	
1737115884033	0.004196167	
1737115884034	-0.0032806396	
1737115884035	-0.008239746	
1737115884036	-0.004425049	
1737115884037	0.0035095215	
1737115884038	0.0019073486	
1737115884039	0.0022888184	
1737115884040	0.0032806396	
1737115884041	-0.004043579	
1737115884042	-0.0032806396	
1737115884043	3.8146973E-4	
1737115884044	-0.0016021729	
1737115884045	-0.0016021729	
1737115884046	1.5258789E-4	
1737115884047	0.0019836426	
1737115884048	0.0017547607	
1737115884049	-0.0020599365	
1737115884050	-0.002670288	
1737115884051	0.0016784668	
1737115884052	3.0517578E-4	
1737115884053	-0.0034332275	
1737115884054	5.340576E-4	
1737115884055	0.0016784668	
1737115884056	-0.001449585	
1737115884057	-0.0010681152	
1737115884058	-7.6293945E-4	
1737115884059	0.0037384033	
1737115884060	0.00831604	
1737115884061	-0.001449585	
1737115884062	-0.0074768066	
1737115884063	-0.0016021729	
1737115884064	-8.392334E-4	
1737115884065	0.0020599365	
1737115884066	0.0038909912	
1737115884067	0.0020599365	
1737115884068	0.0048065186	
1737115884069	-0.0046539307	
1737115884070	-0.0073242188	
1737115884071	0.001373291	
1737115884072	-0.004501343	
1737115884073	-3.0517578E-4	
1737115884074	0.0060272217	
1737115884075	3.8146973E-4	
1737115884076	6.866455E-4	
1737115884077	-0.0031280518	
1737115884078	-0.0063323975	
1737115884079	-0.001449585	
1737115884080	-8.392334E-4	
1737115884081	-1.5258789E-4	
1737115884082	0.0017547607	
1737115884083	6.866455E-4	
1737115884084	0.0063323975	
1737115884085	0.009918213	
1737115884086	-0.0021362305	
1737115884087	-0.0061798096	
1737115884088	0.0016784668	
1737115884089	-3.8146973E-4	
1737115884090	-0.002670288	
1737115884091	-0.0033569336	
1737115884092	-0.0018310547	
1737115884093	0.004501343	
1737115884094	0.0077819824	
1737115884095	0.010070801	
1737115884096	0.0012969971	
1737115884097	-0.00541687	
1737115884098	-0.0011444092	
1737115884099	-0.0050354004	
1737115884100	-0.0066375732	
1737115884101	-0.0048065186	
1737115884102	-0.005569458	
1737115884103	0.0021362305	
1737115884104	0.009918213	
1737115884105	0.0046539307	
1737115884106	-0.005722046	
1737115884107	-0.009994507	
1737115884108	0.0019073486	
1737115884109	0.009613037	
1737115884110	-0.0045776367	
1737115884111	-0.00579834	
1737115884112	1.5258789E-4	
1737115884113	-4.5776367E-4	
1737115884114	0.0032043457	
1737115884115	8.392334E-4	
1737115884116	0.0019836426	
1737115884117	0.0033569336	
1737115884118	-7.6293945E-4	
1737115884119	0.0016021729	
1737115884120	0.0023651123	
1737115884121	0.001373291	
1737115884122	6.1035156E-4	
1737115884123	-0.0016784668	
1737115884124	9.1552734E-4	
1737115884125	-6.1035156E-4	
1737115884126	-0.004501343	
1737115884127	-0.0035858154	
1737115884128	-0.004196167	
1737115884129	-0.0019073486	
1737115884130	0.0019073486	
1737115884131	0.0051116943	
1737115884132	0.0074005127	
1737115884133	0.004196167	
1737115884134	7.6293945E-5	
1737115884135	-0.0015258789	
1737115884136	-0.0012207031	
1737115884137	-0.0025177002	
1737115884138	-0.0031280518	
1737115884139	-0.0035858154	
1737115884140	-0.004043579	
1737115884141	0.001373291	
1737115884142	0.002670288	
1737115884143	0.0016021729	
1737115884144	0.0030517578	
1737115884145	-3.0517578E-4	
1737115884146	-0.0032806396	
1737115884147	-0.0023651123	
1737115884148	5.340576E-4	
1737115884149	6.1035156E-4	
1737115884150	-0.0021362305	
1737115884151	1.5258789E-4	
1737115884152	0.0015258789	
1737115884153	-3.8146973E-4	
1737115884154	0.0019836426	
1737115884155	2.2888184E-4	
1737115884156	-0.0046539307	
1737115884157	-0.0020599365	
1737115884158	-0.0021362305	
1737115884159	-9.1552734E-4	
1737115884160	0.0062561035	
1737115884161	0.0045776367	
1737115884162	7.6293945E-5	
1737115884163	-9.918213E-4	
1737115884164	-0.0012969971	
1737115884165	-0.0012969971	
1737115884166	0.0	
1737115884167	0.0019836426	
1737115884168	5.340576E-4	
1737115884169	3.0517578E-4	
1737115884170	3.0517578E-4	
1737115884171	7.6293945E-5	
1737115884172	9.918213E-4	
1737115884173	-7.6293945E-5	
1737115884174	-0.0016021729	
1737115884175	0.0011444092	
1737115884176	0.0029754639	
1737115884177	3.0517578E-4	
1737115884178	-0.0035095215	
1737115884179	-0.0019073486	
1737115884180	0.002822876	
1737115884181	6.1035156E-4	
1737115884182	0.0030517578	
1737115884183	0.0019073486	
1737115884184	-0.0064849854	
1737115884185	-0.002670288	
1737115884186	-0.0021362305	
1737115884187	-0.004501343	
1737115884188	7.6293945E-4	
1737115884189	7.6293945E-5	
1737115884190	3.8146973E-4	
1737115884191	7.6293945E-4	
1737115884192	-0.005264282	
1737115884193	-0.008239746	
1737115884194	-0.009307861	
1737115884195	-0.001449585	
1737115884196	0.012435913	
1737115884197	0.027313232	
1737115884198	0.031661987	
1737115884199	0.0011444092	
1737115884200	-0.015411377	
1737115884201	-0.0050354004	
1737115884202	-0.011444092	
1737115884203	-0.007019043	
1737115884204	-9.918213E-4	
1737115884205	-0.008468628	
1737115884206	-9.918213E-4	
1737115884207	0.0019836426	
1737115884208	-0.0023651123	
1737115884209	0.0012969971	
1737115884210	0.0016021729	
1737115884211	-0.0012969971	
1737115884212	-0.0030517578	
1737115884213	6.1035156E-4	
1737115884214	0.0032043457	
1737115884215	0.005569458	
1737115884216	0.009994507	
1737115884217	-8.392334E-4	
1737115884218	-0.01625061	
1737115884219	-0.017318726	
1737115884220	-0.00831604	
1737115884221	-6.1035156E-4	
1737115884222	0.007019043	
1737115884223	0.018463135	
1737115884224	0.026397705	
1737115884225	0.01663208	
1737115884226	-0.0063323975	
1737115884227	-0.012359619	
1737115884228	-0.0032806396	
1737115884229	-0.0032043457	
1737115884230	-0.009231567	
1737115884231	-0.015792847	
1737115884232	-0.013198853	
1737115884233	-0.004119873	
1737115884234	-0.0021362305	
1737115884235	0.0045776367	
1737115884236	0.0065612793	
1737115884237	0.0011444092	
1737115884238	0.00831604	
1737115884239	0.009155273	
1737115884240	0.0018310547	
1737115884241	-2.2888184E-4	
1737115884242	7.6293945E-5	
1737115884243	0.0060272217	
1737115884244	0.004348755	
1737115884245	0.0033569336	
1737115884246	0.003967285	
1737115884247	0.0023651123	
1737115884248	0.016403198	
1737115884249	0.015258789	
1737115884250	-0.0074768066	
1737115884251	-0.012512207	
1737115884252	-0.0016784668	
1737115884253	0.004272461	
1737115884254	0.013809204	
1737115884255	0.026626587	
1737115884256	0.012664795	
1737115884257	-0.025863647	
1737115884258	-0.045700073	
1737115884259	-0.037460327	
1737115884260	-0.015258789	
1737115884261	0.004348755	
1737115884262	-0.014572144	
1737115884263	-0.027999878	
1737115884264	-0.003967285	
1737115884265	0.010528564	
1737115884266	0.03578186	
1737115884267	0.059661865	
1737115884268	0.023269653	
1737115884269	-0.036468506	
1737115884270	-0.042419434	
1737115884271	-0.012283325	
1737115884272	0.0061035156	
1737115884273	0.007858276	
1737115884274	-0.032196045	
1737115884275	-0.091552734	
1737115884276	-0.11260986	
1737115884277	-0.07575989	
1737115884278	-0.0011444092	
1737115884279	0.078430176	
1737115884280	0.10635376	
1737115884281	0.09094238	
1737115884282	0.096969604	
1737115884283	0.08377075	
1737115884284	0.06523132	
1737115884285	0.05104065	
1737115884286	0.017547607	
1737115884287	0.0020599365	
1737115884288	-0.005874634	
1737115884289	-0.0066375732	
1737115884290	-0.010528564	
1737115884291	-0.024795532	
1737115884292	-0.043640137	
1737115884293	-0.06355286	
1737115884294	-0.04295349	
1737115884295	-0.026779175	
1737115884296	-0.023803711	
1737115884297	-0.0032806396	
1737115884298	0.0020599365	
1737115884299	0.010986328	
1737115884300	0.012588501	
1737115884301	0.0035858154	
1737115884302	-0.0063323975	
1737115884303	-0.027160645	
1737115884304	-0.034103394	
1737115884305	-0.0630188	
1737115884306	-0.06958008	
1737115884307	-0.012283325	
1737115884308	0.0061798096	
1737115884309	0.0037384033	
1737115884310	0.024795532	
1737115884311	0.017929077	
1737115884312	0.016937256	
1737115884313	0.03501892	
1737115884314	0.03387451	
1737115884315	0.023269653	
1737115884316	0.00831604	
1737115884317	-7.6293945E-4	
1737115884318	-0.0037384033	
1737115884319	0.006790161	
1737115884320	0.017852783	
1737115884321	0.0073242188	
1737115884322	0.0035858154	
1737115884323	0.009002686	
1737115884324	0.01335144	
1737115884325	4.5776367E-4	
1737115884326	-0.028915405	
1737115884327	-0.026550293	
1737115884328	0.0046539307	
1737115884329	0.013885498	
1737115884330	0.0029754639	
1737115884331	0.0073242188	
1737115884332	0.008773804	
1737115884333	0.002670288	
1737115884334	0.024871826	
1737115884335	0.033950806	
1737115884336	0.009536743	
1737115884337	-0.010147095	
1737115884338	-0.025482178	
1737115884339	-0.024337769	
1737115884340	-0.0020599365	
1737115884341	0.008850098	
1737115884342	-4.5776367E-4	
1737115884343	-5.340576E-4	
1737115884344	-0.0051116943	
1737115884345	-0.024032593	
1737115884346	-0.026397705	
1737115884347	-0.030670166	
1737115884348	-0.04989624	
1737115884349	-0.053253174	
1737115884350	0.0051116943	
1737115884351	0.063323975	
1737115884352	0.043563843	
1737115884353	0.027389526	
1737115884354	0.014953613	
1737115884355	-0.0118255615	
1737115884356	-0.009307861	
1737115884357	-0.0074005127	
1737115884358	0.004501343	
1737115884359	0.03288269	
1737115884360	0.028915405	
1737115884361	0.018692017	
1737115884362	0.034484863	
1737115884363	0.028839111	
1737115884364	-0.018005371	
1737115884365	-0.075302124	
1737115884366	-0.06401062	
1737115884367	-0.0032806396	
1737115884368	-0.031661987	
1737115884369	-0.0743103	
1737115884370	-0.041427612	
1737115884371	0.02067566	
1737115884372	0.07133484	
1737115884373	0.07720947	
1737115884374	0.074539185	
1737115884375	0.04005432	
1737115884376	-0.030670166	
1737115884377	-0.055618286	
1737115884378	-0.09101868	
1737115884379	-0.13206482	
1737115884380	-0.07583618	
1737115884381	0.028839111	
1737115884382	0.045547485	
1737115884383	-0.009002686	
1737115884384	0.031585693	
1737115884385	0.11695862	
1737115884386	0.10536194	
1737115884387	0.06813049	
1737115884388	0.07171631	
1737115884389	0.05973816	
1737115884390	0.028839111	
1737115884391	0.0064849854	
1737115884392	-0.01663208	
1737115884393	-0.014572144	
1737115884394	0.0118255615	
1737115884395	0.0022888184	
1737115884396	-0.029678345	
1737115884397	-0.03555298	
1737115884398	-0.030288696	
1737115884399	-0.016860962	
1737115884400	-0.0073242188	
1737115884401	-0.013961792	
1737115884402	-0.049743652	
1737115884403	-0.0856781	
1737115884404	-0.05821228	
1737115884405	-0.06263733	
1737115884406	-0.11413574	
1737115884407	-0.10482788	
1737115884408	-0.049362183	
1737115884409	0.014877319	
1737115884410	0.03944397	
1737115884411	0.038223267	
1737115884412	0.049438477	
1737115884413	0.05935669	
1737115884414	0.09460449	
1737115884415	0.105285645	
1737115884416	0.060272217	
1737115884417	0.030441284	
1737115884418	0.020904541	
1737115884419	-7.6293945E-5	
1737115884420	-0.013046265	
1737115884421	-0.0035858154	
1737115884422	6.866455E-4	
1737115884423	0.00289917	
1737115884424	-0.0010681152	
1737115884425	-0.023727417	
1737115884426	-0.041122437	
1737115884427	-0.07575989	
1737115884428	-0.06958008	
1737115884429	0.011291504	
1737115884430	0.009155273	
1737115884431	-0.020141602	
1737115884432	0.041885376	
1737115884433	0.05317688	
1737115884434	0.0020599365	
1737115884435	0.03616333	
1737115884436	0.089416504	
1737115884437	0.04814148	
1737115884438	0.023422241	
1737115884439	0.018539429	
1737115884440	-0.018234253	
1737115884441	-0.024871826	
1737115884442	-0.038986206	
1737115884443	-0.0730896	
1737115884444	-0.07789612	
1737115884445	-0.040130615	
1737115884446	-0.0011444092	
1737115884447	0.0059509277	
1737115884448	0.03517151	
1737115884449	0.051651	
1737115884450	0.035629272	
1737115884451	0.048675537	
1737115884452	0.07217407	
1737115884453	0.035476685	
1737115884454	-0.08522034	
1737115884455	-0.15388489	
1737115884456	-0.12298584	
1737115884457	-0.09567261	
1737115884458	-0.048675537	
1737115884459	0.008621216	
1737115884460	0.019683838	
1737115884461	-0.033111572	
1737115884462	-0.06820679	
1737115884463	0.027236938	
1737115884464	0.07003784	
1737115884465	0.03189087	
1737115884466	0.06011963	
1737115884467	0.09361267	
1737115884468	0.12588501	
1737115884469	0.12947083	
1737115884470	0.08255005	
1737115884471	0.044021606	
1737115884472	0.0022125244	
1737115884473	-0.0048828125	
1737115884474	0.0011444092	
1737115884475	-0.017852783	
1737115884476	-0.020751953	
1737115884477	-0.033950806	
1737115884478	-0.044708252	
1737115884479	-0.028915405	
1737115884480	-0.023269653	
1737115884481	-0.04096985	
1737115884482	-0.051651	
1737115884483	-0.03868103	
1737115884484	-0.03288269	
1737115884485	-0.015487671	
1737115884486	0.013198853	
1737115884487	0.0030517578	
1737115884488	-0.020370483	
1737115884489	-0.008392334	
1737115884490	-0.0010681152	
1737115884491	-0.04020691	
1737115884492	-0.052108765	
1737115884493	-0.010375977	
1737115884494	-0.0045776367	
1737115884495	-0.039367676	
1737115884496	-0.04386902	
1737115884497	-0.051956177	
1737115884498	-0.014801025	
1737115884499	0.07293701	
1737115884500	0.10345459	
1737115884501	0.13786316	
1737115884502	0.15731812	
1737115884503	0.10681152	
1737115884504	0.025939941	
1737115884505	-0.05783081	
1737115884506	-0.08338928	
1737115884507	-0.057907104	
1737115884508	-0.022354126	
1737115884509	0.010528564	
1737115884510	0.01083374	
1737115884511	-0.025634766	
1737115884512	-0.05531311	
1737115884513	-0.056533813	
1737115884514	-0.03730774	
1737115884515	-0.017318726	
1737115884516	-0.016784668	
1737115884517	0.0010681152	
1737115884518	0.012207031	
1737115884519	0.016937256	
1737115884520	0.06416321	
1737115884521	0.06568909	
1737115884522	0.024719238	
1737115884523	0.009536743	
1737115884524	0.013122559	
1737115884525	0.045166016	
1737115884526	0.03501892	
1737115884527	-0.031967163	
1737115884528	-0.037460327	
1737115884529	-6.1035156E-4	
1737115884530	-0.010910034	
1737115884531	-0.010604858	
1737115884532	0.014724731	
1737115884533	-0.004272461	
1737115884534	-0.033721924	
1737115884535	-0.026245117	
1737115884536	-0.017929077	
1737115884537	-0.038909912	
1737115884538	-0.04966736	
1737115884539	-0.02746582	
1737115884540	-0.010910034	
1737115884541	-0.007171631	
1737115884542	-0.0017547607	
1737115884543	0.0029754639	
1737115884544	0.004119873	
1737115884545	0.016860962	
1737115884546	0.03730774	
1737115884547	0.046920776	
1737115884548	0.050582886	
1737115884549	0.053634644	
1737115884550	0.031051636	
1737115884551	-0.01739502	
1737115884552	-0.020751953	
1737115884553	-0.009384155	
1737115884554	-0.047454834	
1737115884555	-0.07362366	
1737115884556	-0.06401062	
1737115884557	-0.058059692	
1737115884558	6.866455E-4	
1737115884559	0.06820679	
1737115884560	0.061340332	
1737115884561	0.055923462	
1737115884562	0.05897522	
1737115884563	0.043411255	
1737115884564	0.030975342	
1737115884565	-0.006942749	
1737115884566	-0.042419434	
1737115884567	-0.017318726	
1737115884568	-0.008468628	
1737115884569	-0.037765503	
1737115884570	-0.047302246	
1737115884571	-0.056381226	
1737115884572	-0.072631836	
1737115884573	-0.06011963	
1737115884574	0.03593445	
1737115884575	0.107040405	
1737115884576	0.047836304	
1737115884577	0.002746582	
1737115884578	0.0077056885	
1737115884579	0.005340576	
1737115884580	0.031661987	
1737115884581	0.0592041	
1737115884582	0.03265381	
1737115884583	0.007019043	
1737115884584	0.02571106	
1737115884585	0.030212402	
1737115884586	0.006790161	
1737115884587	-0.022583008	
1737115884588	-0.03791809	
1737115884589	-0.034561157	
1737115884590	-0.025177002	
1737115884591	-0.02067566	
1737115884592	-0.03929138	
1737115884593	-0.0440979	
1737115884594	-0.035476685	
1737115884595	-0.052719116	
1737115884596	-0.03616333	
1737115884597	-0.004196167	
1737115884598	-0.009460449	
1737115884599	0.008392334	
1737115884600	0.02998352	
1737115884601	0.033416748	
1737115884602	0.043792725	
1737115884603	0.027999878	
1737115884604	0.0046539307	
1737115884605	-4.5776367E-4	
1737115884606	2.2888184E-4	
1737115884607	0.0090789795	
1737115884608	0.018157959	
1737115884609	0.020904541	
1737115884610	0.024414062	
1737115884611	0.018844604	
1737115884612	0.0049591064	
1737115884613	-0.0050354004	
1737115884614	3.0517578E-4	
1737115884615	0.0016021729	
1737115884616	0.005264282	
1737115884617	0.0090789795	
1737115884618	-0.034103394	
1737115884619	-0.05508423	
1737115884620	-0.039596558	
1737115884621	-0.03578186	
1737115884622	-0.0064086914	
1737115884623	0.00289917	
1737115884624	-6.866455E-4	
1737115884625	0.0046539307	
1737115884626	-0.0019836426	
1737115884627	0.029525757	
1737115884628	0.048217773	
1737115884629	0.038604736	
1737115884630	0.045776367	
1737115884631	0.008163452	
1737115884632	-0.044403076	
1737115884633	-0.049057007	
1737115884634	-0.0062561035	
1737115884635	0.05470276	
1737115884636	0.031280518	
1737115884637	-0.03807068	
1737115884638	-0.0466156	
1737115884639	-0.021362305	
1737115884640	-0.007171631	
1737115884641	0.014343262	
1737115884642	0.04699707	
1737115884643	0.045700073	
1737115884644	0.017471313	
1737115884645	-0.0031280518	
1737115884646	-0.025100708	
1737115884647	-0.069503784	
1737115884648	-0.075149536	
1737115884649	-0.017089844	
1737115884650	0.019302368	
1737115884651	0.045394897	
1737115884652	0.06034851	
1737115884653	0.02494812	
1737115884654	9.1552734E-4	
1737115884655	0.005340576	
1737115884656	0.0019836426	
1737115884657	-0.0119018555	
1737115884658	-0.012512207	
1737115884659	-0.013580322	
1737115884660	-0.030593872	
1737115884661	-0.011978149	
1737115884662	0.01625061	
1737115884663	0.018463135	
1737115884664	0.016098022	
1737115884665	-0.008468628	
1737115884666	-0.026016235	
1737115884667	-0.008087158	
1737115884668	0.009307861	
1737115884669	0.004043579	
1737115884670	-0.027999878	
1737115884671	-0.038757324	
1737115884672	-0.012130737	
1737115884673	0.016098022	
1737115884674	0.018157959	
1737115884675	-0.011367798	
1737115884676	-0.021209717	
1737115884677	0.015335083	
1737115884678	0.056152344	
1737115884679	0.060272217	
1737115884680	0.026016235	
1737115884681	-0.020751953	
1737115884682	-0.035858154	
1737115884683	-0.0035858154	
1737115884684	0.02067566	
1737115884685	0.008621216	
1737115884686	0.0019073486	
1737115884687	0.01159668	
1737115884688	-0.0045776367	
1737115884689	-0.033950806	
1737115884690	-0.026321411	
1737115884691	0.0036621094	
1737115884692	0.030822754	
1737115884693	0.035247803	
1737115884694	0.001373291	
1737115884695	-0.045776367	
1737115884696	-0.05317688	
1737115884697	-0.009002686	
1737115884698	0.018615723	
1737115884699	0.018615723	
1737115884700	0.007171631	
1737115884701	-0.0016784668	
1737115884702	0.00289917	
1737115884703	-0.01701355	
1737115884704	-0.04585266	
1737115884705	-0.02029419	
1737115884706	0.034866333	
1737115884707	0.034942627	
1737115884708	0.023498535	
1737115884709	0.02243042	
1737115884710	-0.0064086914	
1737115884711	-0.023727417	
1737115884712	-0.020980835	
1737115884713	0.017471313	
1737115884714	0.04737854	
1737115884715	0.013656616	
1737115884716	-0.023269653	
1737115884717	-0.03929138	
1737115884718	-0.029830933	
1737115884719	0.0047302246	
1737115884720	0.030212402	
1737115884721	0.027008057	
1737115884722	8.392334E-4	
1737115884723	-0.01876831	
1737115884724	-9.918213E-4	
1737115884725	0.022964478	
1737115884726	-0.0048828125	
1737115884727	-0.04081726	
1737115884728	-0.028076172	
1737115884729	-1.5258789E-4	
1737115884730	0.016174316	
1737115884731	0.014190674	
1737115884732	0.011138916	
1737115884733	0.004348755	
1737115884734	0.0061798096	
1737115884735	0.025177002	
1737115884736	0.0020599365	
1737115884737	-0.023956299	
1737115884738	-0.014419556	
1737115884739	-0.02609253	
1737115884740	-0.027160645	
1737115884741	-0.0074005127	
1737115884742	0.007858276	
1737115884743	0.05065918	
1737115884744	0.065078735	
1737115884745	0.020217896	
1737115884746	-0.010223389	
1737115884747	-0.026397705	
1737115884748	-0.032730103	
1737115884749	-0.010299683	
1737115884750	-0.0074005127	
1737115884751	-0.010528564	
1737115884752	-0.0034332275	
1737115884753	-0.0033569336	
1737115884754	0.005493164	
1737115884755	0.00579834	
1737115884756	0.0046539307	
1737115884757	0.004348755	
1737115884758	3.0517578E-4	
1737115884759	-0.004119873	
1737115884760	-0.01411438	
1737115884761	-0.00579834	
1737115884762	0.008468628	
1737115884763	0.012435913	
1737115884764	0.011749268	
1737115884765	0.0022888184	
1737115884766	-0.0012207031	
1737115884767	-0.01083374	
1737115884768	-0.012435913	
1737115884769	-0.0012969971	
1737115884770	0.00289917	
1737115884771	0.019378662	
1737115884772	0.02998352	
1737115884773	0.024642944	
1737115884774	0.019836426	
1737115884775	-0.0038146973	
1737115884776	-0.019989014	
1737115884777	-0.015487671	
1737115884778	-0.025482178	
1737115884779	-0.02456665	
1737115884780	-0.018692017	
1737115884781	-0.02708435	
1737115884782	-0.009460449	
1737115884783	0.01449585	
1737115884784	0.009307861	
1737115884785	0.0064849854	
1737115884786	0.012588501	
1737115884787	0.012588501	
1737115884788	0.012512207	
1737115884789	0.011367798	
1737115884790	0.009384155	
1737115884791	-0.0020599365	
1737115884792	-0.0019836426	
1737115884793	0.010528564	
1737115884794	-0.0015258789	
1737115884795	-0.0059509277	
1737115884796	-0.0032806396	
1737115884797	-0.007247925	
1737115884798	-9.918213E-4	
1737115884799	-0.00793457	
1737115884800	-0.009231567	
1737115884801	8.392334E-4	
1737115884802	0.007095337	
1737115884803	0.008239746	
1737115884804	0.009918213	
1737115884805	0.009002686	
1737115884806	0.0036621094	
1737115884807	0.0033569336	
1737115884808	-0.0016021729	
1737115884809	-0.0065612793	
1737115884810	-0.009613037	
1737115884811	-0.008087158	
1737115884812	-0.0031280518	
1737115884813	-0.005722046	
1737115884814	-0.0029754639	
1737115884815	0.0032043457	
1737115884816	-0.004425049	
1737115884817	-0.0022888184	
1737115884818	-0.0090789795	
1737115884819	-0.011444092	
1737115884820	0.0076293945	
1737115884821	0.0077819824	
1737115884822	0.008239746	
1737115884823	0.011520386	
1737115884824	6.1035156E-4	
1737115884825	-0.005645752	
1737115884826	-0.0029754639	
1737115884827	0.006942749	
1737115884828	0.010299683	
1737115884829	0.007858276	
1737115884830	0.0075531006	
1737115884831	0.0015258789	
1737115884832	-0.009155273	
1737115884833	-0.01373291	
1737115884834	-0.007858276	
1737115884835	-0.0024414062	
1737115884836	-0.008010864	
1737115884837	-0.0037384033	
1737115884838	0.005645752	
1737115884839	0.0066375732	
1737115884840	0.006866455	
1737115884841	-0.0051879883	
1737115884842	-0.0010681152	
1737115884843	0.0077819824	
1737115884844	-1.5258789E-4	
1737115884845	0.007858276	
1737115884846	0.01411438	
1737115884847	0.0074005127	
1737115884848	7.6293945E-4	
1737115884849	-0.0016021729	
1737115884850	7.6293945E-5	
1737115884851	-0.009002686	
1737115884852	-0.015029907	
1737115884853	-0.0060272217	
1737115884854	-0.0024414062	
1737115884855	-0.0047302246	
1737115884856	-0.008010864	
1737115884857	-0.005874634	
1737115884858	-0.0030517578	
1737115884859	0.0016784668	
1737115884860	0.0060272217	
1737115884861	0.002822876	
1737115884862	0.0077819824	
1737115884863	0.0025939941	
1737115884864	-0.008010864	
1737115884865	0.0021362305	
1737115884866	0.00793457	
1737115884867	0.0076293945	
1737115884868	0.01449585	
1737115884869	0.020523071	
1737115884870	0.008087158	
1737115884871	-0.004272461	
1737115884872	-0.014419556	
1737115884873	-0.03211975	
1737115884874	-0.043563843	
1737115884875	-0.021743774	
1737115884876	0.03036499	
1737115884877	0.05378723	
1737115884878	0.029449463	
1737115884879	0.015945435	
1737115884880	0.010604858	
1737115884881	-0.041885376	
1737115884882	-0.07385254	
1737115884883	-0.056991577	
1737115884884	-0.033111572	
1737115884885	0.00793457	
1737115884886	0.04852295	
1737115884887	0.044174194	
1737115884888	0.033721924	
1737115884889	0.00869751	
1737115884890	-0.023345947	
1737115884891	-0.009994507	
1737115884892	-0.005340576	
1737115884893	1.5258789E-4	
1737115884894	0.03578186	
1737115884895	0.037765503	
1737115884896	0.013122559	
1737115884897	0.01083374	
1737115884898	0.02319336	
1737115884899	0.026550293	
1737115884900	0.028076172	
1737115884901	0.026473999	
1737115884902	0.0045776367	
1737115884903	-0.015487671	
1737115884904	-0.025177002	
1737115884905	-0.055770874	
1737115884906	-0.06881714	
1737115884907	-0.040130615	
1737115884908	-0.020217896	
1737115884909	0.0018310547	
1737115884910	0.01625061	
1737115884911	-8.392334E-4	
1737115884912	-0.008544922	
1737115884913	0.018539429	
1737115884914	0.023956299	
1737115884915	0.010070801	
1737115884916	0.025024414	
1737115884917	-0.0033569336	
1737115884918	-0.07385254	
1737115884919	-0.086517334	
1737115884920	-0.09140015	
1737115884921	-0.10940552	
1737115884922	-0.05088806	
1737115884923	0.041809082	
1737115884924	0.11077881	
1737115884925	0.14076233	
1737115884926	0.105667114	
1737115884927	0.08041382	
1737115884928	0.084991455	
1737115884929	0.05104065	
1737115884930	0.0049591064	
1737115884931	-0.018157959	
1737115884932	-0.02319336	
1737115884933	-0.007858276	
1737115884934	-1.5258789E-4	
1737115884935	-0.0017547607	
1737115884936	-0.008773804	
1737115884937	-0.006866455	
1737115884938	0.0066375732	
1737115884939	-0.015945435	
1737115884940	-0.049438477	
1737115884941	-0.079422	
1737115884942	-0.09460449	
1737115884943	-0.054626465	
1737115884944	-0.011367798	
1737115884945	-0.04600525	
1737115884946	-0.10269165	
1737115884947	-0.074539185	
1737115884948	0.016021729	
1737115884949	0.07484436	
1737115884950	0.07141113	
1737115884951	0.08407593	
1737115884952	0.10429382	
1737115884953	0.07461548	
1737115884954	0.04272461	
1737115884955	0.017471313	
1737115884956	-0.004348755	
1737115884957	-0.036468506	
1737115884958	-0.050354004	
1737115884959	-0.006866455	
1737115884960	0.012207031	
1737115884961	0.008544922	
1737115884962	-0.0046539307	
1737115884963	-0.036697388	
1737115884964	-0.027999878	
1737115884965	0.0048828125	
1737115884966	0.026626587	
1737115884967	0.031585693	
1737115884968	0.041275024	
1737115884969	0.051498413	
1737115884970	0.030288696	
1737115884971	0.036010742	
1737115884972	-0.0090789795	
1737115884973	-0.12176514	
1737115884974	-0.10551453	
1737115884975	-0.042648315	
1737115884976	-0.040664673	
1737115884977	-0.018463135	
1737115884978	0.016860962	
1737115884979	0.052261353	
1737115884980	0.052871704	
1737115884981	0.010070801	
1737115884982	0.008926392	
1737115884983	-0.002670288	
1737115884984	-0.01083374	
1737115884985	0.028762817	
1737115884986	0.011978149	
1737115884987	-0.03112793	
1737115884988	-0.030288696	
1737115884989	-0.0035858154	
1737115884990	0.014801025	
1737115884991	0.013122559	
1737115884992	0.022888184	
1737115884993	0.028381348	
1737115884994	0.013961792	
1737115884995	0.00579834	
1737115884996	-0.0034332275	
1737115884997	-0.014419556	
1737115884998	-0.001449585	
1737115884999	-0.005264282	
1737115885000	-0.04371643	
1737115885001	-0.06652832	
1737115885002	-0.06149292	
1737115885003	-0.034332275	
1737115885004	-0.031814575	
1737115885005	-0.029907227	
1737115885006	0.013198853	
1737115885007	0.035858154	
1737115885008	0.04699707	
1737115885009	0.071640015	
1737115885010	0.06942749	
1737115885011	0.04005432	
1737115885012	0.020751953	
1737115885013	0.019378662	
1737115885014	0.03135681	
1737115885015	0.03944397	
1737115885016	0.027770996	
1737115885017	-3.8146973E-4	
1737115885018	-0.030670166	
1737115885019	-0.038528442	
1737115885020	-0.032958984	
1737115885021	-0.028305054	
1737115885022	-0.016860962	
1737115885023	-0.0048065186	
1737115885024	0.0017547607	
1737115885025	0.014343262	
1737115885026	0.018844604	
1737115885027	-7.6293945E-5	
1737115885028	-0.009689331	
1737115885029	-0.023803711	
1737115885030	-0.050811768	
1737115885031	-0.06340027	
1737115885032	-0.043258667	
1737115885033	0.006866455	
1737115885034	0.038528442	
1737115885035	0.02204895	
1737115885036	0.018844604	
1737115885037	0.03303528	
1737115885038	0.02029419	
1737115885039	4.5776367E-4	
1737115885040	-0.008850098	
1737115885041	-0.009841919	
1737115885042	-0.008468628	
1737115885043	-0.017547607	
1737115885044	-0.00289917	
1737115885045	0.026473999	
1737115885046	0.020828247	
1737115885047	0.009841919	
1737115885048	0.018539429	
1737115885049	0.012741089	
1737115885050	0.001449585	
1737115885051	-0.008621216	
1737115885052	-0.03807068	
1737115885053	-0.04928589	
1737115885054	-0.025558472	
1737115885055	0.0076293945	
1737115885056	0.041885376	
1737115885057	0.055618286	
1737115885058	0.024871826	
1737115885059	-0.016784668	
1737115885060	-0.026779175	
1737115885061	-0.011978149	
1737115885062	-5.340576E-4	
1737115885063	-0.0061035156	
1737115885064	-0.017166138	
1737115885065	-0.012664795	
1737115885066	-0.0038909912	
1737115885067	0.020599365	
1737115885068	0.03227234	
1737115885069	0.017471313	
1737115885070	0.009384155	
1737115885071	0.0021362305	
1737115885072	0.009002686	
1737115885073	0.009231567	
1737115885074	-0.0010681152	
1737115885075	2.2888184E-4	
1737115885076	-0.02243042	
1737115885077	-0.037231445	
1737115885078	-0.016479492	
1737115885079	-0.01335144	
1737115885080	-0.018463135	
1737115885081	-0.011444092	
1737115885082	-0.020141602	
1737115885083	-0.030136108	
1737115885084	-0.027008057	
1737115885085	-0.0060272217	
1737115885086	0.042877197	
1737115885087	0.06362915	
1737115885088	0.04798889	
1737115885089	0.014038086	
1737115885090	-9.1552734E-4	
1737115885091	0.012664795	
1737115885092	0.0048065186	
1737115885093	-0.0074005127	
1737115885094	-0.0035858154	
1737115885095	0.0022888184	
1737115885096	0.009231567	
1737115885097	0.0015258789	
1737115885098	-0.0035858154	
1737115885099	-0.0011444092	
1737115885100	-0.02029419	
1737115885101	-0.026550293	
1737115885102	-0.025100708	
1737115885103	-0.027694702	
1737115885104	-0.030822754	
1737115885105	-0.017852783	
1737115885106	3.0517578E-4	
1737115885107	-0.005722046	
1737115885108	0.0073242188	
1737115885109	0.03135681	
1737115885110	0.03517151	
1737115885111	0.035705566	
1737115885112	0.025787354	
1737115885113	0.00831604	
1737115885114	-0.0032806396	
1737115885115	-0.009460449	
1737115885116	-7.6293945E-4	
1737115885117	0.009384155	
1737115885118	0.0063323975	
1737115885119	0.0051879883	
1737115885120	0.005493164	
1737115885121	0.0064086914	
1737115885122	0.014953613	
1737115885123	0.019073486	
1737115885124	0.016326904	
1737115885125	0.010375977	
1737115885126	-0.004425049	
1737115885127	-0.010986328	
1737115885128	0.0	
1737115885129	9.918213E-4	
1737115885130	0.009460449	
1737115885131	0.027770996	
1737115885132	0.027618408	
1737115885133	0.02609253	
1737115885134	0.0073242188	
1737115885135	-0.02960205	
1737115885136	-0.037612915	
1737115885137	-0.026626587	
1737115885138	-0.030975342	
1737115885139	-0.03211975	
1737115885140	-0.020599365	
1737115885141	-0.024108887	
1737115885142	-0.042648315	
1737115885143	-0.053329468	
1737115885144	-0.04852295	
1737115885145	-0.03501892	
1737115885146	-0.01991272	
1737115885147	-0.01373291	
1737115885148	-0.012741089	
1737115885149	-0.007247925	
1737115885150	0.001449585	
1737115885151	0.009536743	
1737115885152	0.01701355	
1737115885153	0.026168823	
1737115885154	0.037231445	
1737115885155	0.042495728	
1737115885156	0.041427612	
1737115885157	0.039138794	
1737115885158	0.02571106	
1737115885159	0.015258789	
1737115885160	0.012359619	
1737115885161	0.0018310547	
1737115885162	0.0030517578	
1737115885163	0.0118255615	
1737115885164	0.011520386	
1737115885165	0.011138916	
1737115885166	0.009536743	
1737115885167	0.007019043	
1737115885168	0.009536743	
1737115885169	0.0076293945	
1737115885170	-0.0049591064	
1737115885171	-0.021438599	
1737115885172	-0.029907227	
1737115885173	-0.027313232	
1737115885174	-0.022583008	
1737115885175	-0.0146484375	
1737115885176	0.012741089	
1737115885177	0.020980835	
1737115885178	0.012054443	
1737115885179	0.01991272	
1737115885180	0.029373169	
1737115885181	0.048675537	
1737115885182	0.0693512	
1737115885183	0.075912476	
1737115885184	0.07072449	
1737115885185	0.06149292	
1737115885186	0.039138794	
1737115885187	0.002670288	
1737115885188	-0.03036499	
1737115885189	-0.07720947	
1737115885190	-0.1108551	
1737115885191	-0.10978699	
1737115885192	-0.08140564	
1737115885193	-0.027694702	
1737115885194	0.003967285	
1737115885195	-0.008773804	
1737115885196	-0.03463745	
1737115885197	-0.030517578	
1737115885198	-0.011291504	
1737115885199	0.016021729	
1737115885200	0.013198853	
1737115885201	-0.014801025	
1737115885202	-0.028839111	
1737115885203	-0.037994385	
1737115885204	-0.053863525	
1737115885205	-0.071258545	
1737115885206	-0.04135132	
1737115885207	-0.027160645	
1737115885208	-0.020828247	
1737115885209	-0.011749268	
1737115885210	-0.024414062	
1737115885211	-0.015487671	
1737115885212	0.0033569336	
1737115885213	0.025405884	
1737115885214	0.041427612	
1737115885215	0.047531128	
1737115885216	0.063705444	
1737115885217	0.036468506	
1737115885218	0.022125244	
1737115885219	0.02998352	
1737115885220	0.047531128	
1737115885221	0.07316589	
1737115885222	0.062408447	
1737115885223	0.06187439	
1737115885224	0.07789612	
1737115885225	0.07095337	
1737115885226	0.057907104	
1737115885227	0.03074646	
1737115885228	0.0012207031	
1737115885229	-0.0075531006	
1737115885230	-0.03967285	
1737115885231	-0.072402954	
1737115885232	-0.027389526	
1737115885233	0.036468506	
1737115885234	0.04196167	
1737115885235	0.03227234	
1737115885236	0.035858154	
1737115885237	0.01373291	
1737115885238	-0.038986206	
1737115885239	-0.047073364	
1737115885240	-0.03715515	
1737115885241	-0.09140015	
1737115885242	-0.14091492	
1737115885243	-0.12023926	
1737115885244	-0.053329468	
1737115885245	0.0035095215	
1737115885246	0.027542114	
1737115885247	0.039520264	
1737115885248	0.037231445	
1737115885249	0.045547485	
1737115885250	0.058898926	
1737115885251	0.004119873	
1737115885252	-0.07606506	
1737115885253	-0.09498596	
1737115885254	-0.048065186	
1737115885255	0.0051116943	
1737115885256	0.016098022	
1737115885257	0.03387451	
1737115885258	0.05180359	
1737115885259	0.047302246	
1737115885260	0.059890747	
1737115885261	0.055999756	
1737115885262	0.031051636	
1737115885263	0.015182495	
1737115885264	0.007095337	
1737115885265	0.018310547	
1737115885266	0.011749268	
1737115885267	-0.016326904	
1737115885268	-0.028076172	
1737115885269	-0.036697388	
1737115885270	-0.03517151	
1737115885271	-0.025100708	
1737115885272	-0.027389526	
1737115885273	-0.03753662	
1737115885274	-0.03677368	
1737115885275	-0.028457642	
1737115885276	-0.024642944	
1737115885277	-0.018615723	
1737115885278	-0.011291504	
1737115885279	0.01159668	
1737115885280	0.010757446	
1737115885281	-0.019073486	
1737115885282	-0.020599365	
1737115885283	-0.008087158	
1737115885284	-0.0017547607	
1737115885285	-0.0074768066	
1737115885286	-0.03868103	
1737115885287	-0.045394897	
1737115885288	-0.008163452	
1737115885289	0.028305054	
1737115885290	0.083465576	
1737115885291	0.14266968	
1737115885292	0.11764526	
1737115885293	0.0642395	
1737115885294	0.038375854	
1737115885295	0.0075531006	
1737115885296	-0.03982544	
1737115885297	-0.06309509	
1737115885298	-0.026626587	
1737115885299	-0.01663208	
1737115885300	-0.056381226	
1737115885301	-0.058059692	
1737115885302	-0.02861023	
1737115885303	0.044555664	
1737115885304	0.12428284	
1737115885305	0.13412476	
1737115885306	0.1109314	
1737115885307	0.04096985	
1737115885308	-0.0075531006	
1737115885309	-0.007858276	
1737115885310	-0.029830933	
1737115885311	-0.023345947	
1737115885312	-0.014419556	
1737115885313	-0.019836426	
1737115885314	-0.026779175	
1737115885315	-0.052108765	
1737115885316	-0.075531006	
1737115885317	-0.10360718	
1737115885318	-0.12413025	
1737115885319	-0.1159668	
1737115885320	-0.06561279	
1737115885321	0.005874634	
1737115885322	0.047225952	
1737115885323	0.064086914	
1737115885324	0.051498413	
1737115885325	0.022964478	
1737115885326	0.02166748	
1737115885327	0.01739502	
1737115885328	0.003967285	
1737115885329	0.0077056885	
1737115885330	0.003967285	
1737115885331	0.013961792	
1737115885332	0.06637573	
1737115885333	0.060653687	
1737115885334	-0.014343262	
1737115885335	-0.029830933	
1737115885336	-0.0051879883	
1737115885337	-0.0024414062	
1737115885338	-0.033111572	
1737115885339	-0.11894226	
1737115885340	-0.16677856	
1737115885341	-0.08842468	
1737115885342	0.023117065	
1737115885343	0.047531128	
1737115885344	0.027694702	
1737115885345	0.051116943	
1737115885346	0.07774353	
1737115885347	0.11100769	
1737115885348	0.15228271	
1737115885349	0.122680664	
1737115885350	0.069885254	
1737115885351	0.034484863	
1737115885352	0.0022888184	
1737115885353	0.010223389	
1737115885354	0.027542114	
1737115885355	-0.0024414062	
1737115885356	-0.044326782	
1737115885357	-0.054016113	
1737115885358	-0.054473877	
1737115885359	-0.050811768	
1737115885360	-0.05065918	
1737115885361	-0.07286072	
1737115885362	-0.06500244	
1737115885363	-0.02243042	
1737115885364	0.04043579	
1737115885365	0.09475708	
1737115885366	0.06477356	
1737115885367	-0.008392334	
1737115885368	-0.053100586	
1737115885369	-0.06523132	
1737115885370	-0.03829956	
1737115885371	0.02319336	
1737115885372	0.049819946	
1737115885373	-0.0018310547	
1737115885374	-0.041427612	
1737115885375	-0.03868103	
1737115885376	0.0010681152	
1737115885377	0.026626587	
1737115885378	-0.02281189	
1737115885379	-0.072631836	
1737115885380	-0.12374878	
1737115885381	-0.16868591	
1737115885382	-0.1322174	
1737115885383	-0.09841919	
1737115885384	-0.049743652	
1737115885385	0.056991577	
1737115885386	0.113220215	
1737115885387	0.13572693	
1737115885388	0.13687134	
1737115885389	0.112075806	
1737115885390	0.14762878	
1737115885391	0.19302368	
1737115885392	0.14633179	
1737115885393	0.08934021	
1737115885394	0.07575989	
1737115885395	0.04562378	
1737115885396	0.03829956	
1737115885397	0.06034851	
1737115885398	0.017089844	
1737115885399	-0.048294067	
1737115885400	-0.09025574	
1737115885401	-0.13397217	
1737115885402	-0.131073	
1737115885403	-0.11886597	
1737115885404	-0.11833191	
1737115885405	-0.09414673	
1737115885406	-0.07385254	
1737115885407	-0.06599426	
1737115885408	-0.08911133	
1737115885409	-0.12382507	
1737115885410	-0.11123657	
1737115885411	-0.08888245	
1737115885412	-0.0579834	
1737115885413	-0.0010681152	
1737115885414	0.018615723	
1737115885415	0.015182495	
1737115885416	0.04219055	
1737115885417	0.049972534	
1737115885418	0.016708374	
1737115885419	-0.030288696	
1737115885420	0.037078857	
1737115885421	0.13519287	
1737115885422	0.15136719	
1737115885423	0.1449585	
1737115885424	0.13961792	
1737115885425	0.13641357	
1737115885426	0.11177063	
1737115885427	0.054779053	
1737115885428	0.019989014	
1737115885429	0.018692017	
1737115885430	0.023803711	
1737115885431	0.011520386	
1737115885432	-0.0074005127	
1737115885433	-0.011978149	
1737115885434	-0.020599365	
1737115885435	-0.023269653	
1737115885436	-0.0022888184	
1737115885437	0.004501343	
1737115885438	-0.009918213	
1737115885439	-0.019836426	
1737115885440	-0.024719238	
1737115885441	-0.013427734	
1737115885442	0.0034332275	
1737115885443	0.016021729	
1737115885444	0.014801025	
1737115885445	-1.5258789E-4	
1737115885446	-0.0064086914	
1737115885447	-0.025405884	
1737115885448	-0.066604614	
1737115885449	-0.08972168	
1737115885450	-0.08621216	
1737115885451	-0.09048462	
1737115885452	-0.0932312	
1737115885453	-0.1007843	
1737115885454	-0.11062622	
1737115885455	-0.087890625	
1737115885456	-0.06317139	
1737115885457	-0.04219055	
1737115885458	-0.016326904	
1737115885459	0.005874634	
1737115885460	0.031585693	
1737115885461	0.048828125	
1737115885462	0.040893555	
1737115885463	0.03303528	
1737115885464	0.0340271	
1737115885465	0.026550293	
1737115885466	0.029220581	
1737115885467	0.034942627	
1737115885468	0.021743774	
1737115885469	0.018005371	
1737115885470	0.036087036	
1737115885471	0.054779053	
1737115885472	0.06462097	
1737115885473	0.06645203	
1737115885474	0.056762695	
1737115885475	0.043411255	
1737115885476	0.026779175	
1737115885477	0.024719238	
1737115885478	0.033569336	
1737115885479	0.016326904	
1737115885480	-0.009689331	
1737115885481	-0.030899048	
1737115885482	-0.04219055	
1737115885483	-0.028152466	
1737115885484	-0.009994507	
1737115885485	-9.1552734E-4	
1737115885486	0.0048828125	
1737115885487	0.020141602	
1737115885488	0.036392212	
1737115885489	0.044555664	
1737115885490	0.056915283	
1737115885491	0.05760193	
1737115885492	0.03112793	
1737115885493	8.392334E-4	
1737115885494	-0.008392334	
1737115885495	-0.012130737	
1737115885496	-0.02670288	
1737115885497	-0.034942627	
1737115885498	-0.041122437	
1737115885499	-0.04989624	
1737115885500	-0.0466156	
1737115885501	-0.03425598	
1737115885502	-0.03692627	
1737115885503	-0.059814453	
1737115885504	-0.059890747	
1737115885505	-0.03730774	
1737115885506	-0.035629272	
1737115885507	-0.027236938	
1737115885508	-0.018997192	
1737115885509	-0.019454956	
1737115885510	-0.0066375732	
1737115885511	0.0048828125	
1737115885512	0.02456665	
1737115885513	0.030212402	
1737115885514	0.011367798	
1737115885515	-3.0517578E-4	
1737115885516	-0.0118255615	
1737115885517	-0.012512207	
1737115885518	-0.023269653	
1737115885519	-0.03753662	
1737115885520	-0.044021606	
1737115885521	-0.030441284	
1737115885522	0.018081665	
1737115885523	0.040130615	
1737115885524	0.038223267	
1737115885525	0.047836304	
1737115885526	0.02067566	
1737115885527	-0.009918213	
1737115885528	0.016937256	
1737115885529	0.06980896	
1737115885530	0.07652283	
1737115885531	0.045776367	
1737115885532	0.03982544	
1737115885533	0.03677368	
1737115885534	0.018157959	
1737115885535	0.011520386	
1737115885536	0.0061035156	
1737115885537	0.0016021729	
1737115885538	0.009689331	
1737115885539	0.021362305	
1737115885540	0.026779175	
1737115885541	0.02571106	
1737115885542	0.009689331	
1737115885543	-0.010070801	
1737115885544	-0.013961792	
1737115885545	-0.007171631	
1737115885546	1.5258789E-4	
1737115885547	-0.016098022	
1737115885548	-0.037765503	
1737115885549	-0.028839111	
1737115885550	-0.016098022	
1737115885551	-0.044784546	
1737115885552	-0.08728027	
1737115885553	-0.0693512	
1737115885554	-0.026245117	
1737115885555	-0.005645752	
1737115885556	1.5258789E-4	
1737115885557	-0.015716553	
1737115885558	-0.012435913	
1737115885559	0.0	
1737115885560	0.0012207031	
1737115885561	0.033187866	
1737115885562	0.03807068	
1737115885563	0.022506714	
1737115885564	0.022735596	
1737115885565	0.010604858	
1737115885566	0.005569458	
1737115885567	-0.00579834	
1737115885568	-0.01121521	
1737115885569	-0.002670288	
1737115885570	-0.006713867	
1737115885571	-0.0062561035	
1737115885572	-0.014343262	
1737115885573	-0.015487671	
1737115885574	-2.2888184E-4	
1737115885575	0.0019836426	
1737115885576	0.021438599	
1737115885577	0.028533936	
1737115885578	0.004425049	
1737115885579	0.007247925	
1737115885580	0.012969971	
1737115885581	0.011444092	
1737115885582	0.01586914	
1737115885583	0.013580322	
1737115885584	0.021209717	
1737115885585	0.011978149	
1737115885586	-0.0022888184	
1737115885587	-3.0517578E-4	
1737115885588	-9.1552734E-4	
1737115885589	0.0015258789	
1737115885590	-0.0062561035	
1737115885591	-0.014724731	
1737115885592	-9.918213E-4	
1737115885593	0.008850098	
1737115885594	-0.0016021729	
1737115885595	-0.010528564	
1737115885596	-0.01663208	
1737115885597	-0.021591187	
1737115885598	-0.014572144	
1737115885599	-0.008773804	
1737115885600	-0.007095337	
1737115885601	6.866455E-4	
1737115885602	0.0011444092	
1737115885603	-0.0024414062	
1737115885604	0.001373291	
1737115885605	-0.005569458	
1737115885606	-0.0051116943	
1737115885607	-0.0049591064	
1737115885608	-0.018997192	
1737115885609	-0.023269653	
1737115885610	-0.028915405	
1737115885611	-0.04425049	
1737115885612	-0.037994385	
1737115885613	-0.020141602	
1737115885614	-0.0104522705	
1737115885615	-0.00289917	
1737115885616	-0.024108887	
1737115885617	-0.033721924	
1737115885618	-0.0023651123	
1737115885619	0.0077056885	
1737115885620	0.0118255615	
1737115885621	0.03845215	
1737115885622	0.044326782	
1737115885623	0.052871704	
1737115885624	0.051574707	
1737115885625	0.035705566	
1737115885626	0.036849976	
1737115885627	0.038604736	
1737115885628	0.03753662	
1737115885629	0.033340454	
1737115885630	0.030517578	
1737115885631	0.04043579	
1737115885632	0.044937134	
1737115885633	0.029220581	
1737115885634	0.016784668	
1737115885635	0.00793457	
1737115885636	-0.015563965	
1737115885637	-0.020599365	
1737115885638	-0.0076293945	
1737115885639	0.0012969971	
1737115885640	0.004119873	
1737115885641	-0.007247925	
1737115885642	-0.0074768066	
1737115885643	0.0045776367	
1737115885644	-0.0031280518	
1737115885645	-0.025558472	
1737115885646	-0.05378723	
1737115885647	-0.05569458	
1737115885648	-0.028686523	
1737115885649	-0.027542114	
1737115885650	-0.0390625	
1737115885651	-0.043792725	
1737115885652	-0.04890442	
1737115885653	-0.049209595	
1737115885654	-0.037078857	
1737115885655	-0.020828247	
1737115885656	-0.028076172	
1737115885657	-0.02067566	
1737115885658	0.004348755	
1737115885659	5.340576E-4	
1737115885660	-0.0047302246	
1737115885661	0.002746582	
1737115885662	0.00831604	
1737115885663	0.020980835	
1737115885664	0.030899048	
1737115885665	0.026550293	
1737115885666	0.027313232	
1737115885667	0.030212402	
1737115885668	0.024795532	
1737115885669	0.014343262	
1737115885670	0.009613037	
1737115885671	0.025177002	
1737115885672	0.02960205	
1737115885673	0.021209717	
1737115885674	0.014266968	
1737115885675	0.008163452	
1737115885676	0.016174316	
1737115885677	0.01586914	
1737115885678	0.0019836426	
1737115885679	-0.01953125	
1737115885680	-0.03463745	
1737115885681	-0.03677368	
1737115885682	-0.03074646	
1737115885683	-0.0074005127	
1737115885684	0.00579834	
1737115885685	0.017166138	
1737115885686	0.040359497	
1737115885687	0.035324097	
1737115885688	0.018615723	
1737115885689	0.029296875	
1737115885690	0.047607422	
1737115885691	0.042495728	
1737115885692	0.043563843	
1737115885693	0.043029785	
1737115885694	0.017166138	
1737115885695	0.004348755	
1737115885696	-0.012130737	
1737115885697	-0.034866333	
1737115885698	-0.031814575	
1737115885699	-0.024642944	
1737115885700	-0.034866333	
1737115885701	-0.05645752	
1737115885702	-0.046463013	
1737115885703	-0.005340576	
1737115885704	0.020141602	
1737115885705	0.027923584	
1737115885706	4.5776367E-4	
1737115885707	-0.023498535	
1737115885708	-0.014190674	
1737115885709	-0.03112793	
1737115885710	-0.04425049	
1737115885711	-0.044403076	
1737115885712	-0.059509277	
1737115885713	-0.062942505	
1737115885714	-0.059127808	
1737115885715	-0.06378174	
1737115885716	-0.050582886	
1737115885717	-0.02708435	
1737115885718	-0.042877197	
1737115885719	-0.041503906	
1737115885720	-0.015106201	
1737115885721	-0.005340576	
1737115885722	0.013427734	
1737115885723	0.050048828	
1737115885724	0.08552551	
1737115885725	0.08605957	
1737115885726	0.057678223	
1737115885727	0.037994385	
1737115885728	0.008926392	
1737115885729	-0.009613037	
1737115885730	0.0012207031	
1737115885731	0.012893677	
1737115885732	0.058059692	
1737115885733	0.090408325	
1737115885734	0.08728027	
1737115885735	0.08605957	
1737115885736	0.077819824	
1737115885737	0.0769043	
1737115885738	0.07026672	
1737115885739	0.03677368	
1737115885740	-0.009841919	
1737115885741	-0.039749146	
1737115885742	-0.033721924	
1737115885743	-0.037002563	
1737115885744	-0.03593445	
1737115885745	-0.009689331	
1737115885746	-0.0025939941	
1737115885747	2.2888184E-4	
1737115885748	-0.008163452	
1737115885749	-0.022277832	
1737115885750	-0.018157959	
1737115885751	-0.007247925	
1737115885752	-0.014724731	
1737115885753	-0.049972534	
1737115885754	-0.055618286	
1737115885755	-0.049972534	
1737115885756	-0.06484985	
1737115885757	-0.050430298	
1737115885758	0.009384155	
1737115885759	0.061569214	
1737115885760	0.0693512	
1737115885761	0.05645752	
1737115885762	0.04020691	
1737115885763	-0.01991272	
1737115885764	-0.12947083	
1737115885765	-0.1638031	
1737115885766	-0.1134491	
1737115885767	-0.058898926	
1737115885768	-0.03501892	
1737115885769	-0.046081543	
1737115885770	-0.030517578	
1737115885771	0.005264282	
1737115885772	0.022354126	
1737115885773	0.014572144	
1737115885774	0.005645752	
1737115885775	0.048217773	
1737115885776	0.10192871	
1737115885777	0.12611389	
1737115885778	0.11489868	
1737115885779	0.04348755	
1737115885780	0.004501343	
1737115885781	0.021743774	
1737115885782	0.007019043	
1737115885783	-0.02746582	
1737115885784	-0.008850098	
1737115885785	0.07347107	
1737115885786	0.15602112	
1737115885787	0.16517639	
1737115885788	0.052947998	
1737115885789	-0.04875183	
1737115885790	-0.08148193	
1737115885791	-0.15640259	
1737115885792	-0.2810669	
1737115885793	-0.32295227	
1737115885794	-0.15586853	
1737115885795	0.017242432	
1737115885796	0.06034851	
1737115885797	0.085372925	
1737115885798	0.071640015	
1737115885799	0.05706787	
1737115885800	0.10787964	
1737115885801	0.18981934	
1737115885802	0.21713257	
1737115885803	0.18722534	
1737115885804	0.09925842	
1737115885805	-0.06263733	
1737115885806	-0.15830994	
1737115885807	-0.17311096	
1737115885808	-0.1486206	
1737115885809	-0.100479126	
1737115885810	-0.07247925	
1737115885811	-0.004043579	
1737115885812	0.06843567	
1737115885813	0.08598328	
1737115885814	0.091781616	
1737115885815	0.09300232	
1737115885816	0.061798096	
1737115885817	0.050201416	
1737115885818	0.05760193	
1737115885819	-0.006713867	
1737115885820	-0.089416504	
1737115885821	-0.10505676	
1737115885822	-0.094680786	
1737115885823	-0.09689331	
1737115885824	-0.0945282	
1737115885825	-0.02571106	
1737115885826	0.063705444	
1737115885827	0.04371643	
1737115885828	0.015563965	
1737115885829	0.008621216	
1737115885830	-0.018615723	
1737115885831	0.00579834	
1737115885832	0.023040771	
1737115885833	0.066604614	
1737115885834	0.104904175	
1737115885835	0.045547485	
1737115885836	0.00831604	
1737115885837	-0.051879883	
1737115885838	-0.18089294	
1737115885839	-0.17951965	
1737115885840	-0.11924744	
1737115885841	-0.07446289	
1737115885842	0.03326416	
1737115885843	0.102996826	
1737115885844	0.14556885	
1737115885845	0.121154785	
1737115885846	0.017318726	
1737115885847	-0.049057007	
1737115885848	-0.06530762	
1737115885849	-0.022277832	
1737115885850	0.0065612793	
1737115885851	0.043029785	
1737115885852	0.0806427	
1737115885853	0.028686523	
1737115885854	-0.033340454	
1737115885855	-0.07835388	
1737115885856	-0.14205933	
1737115885857	-0.1851654	
1737115885858	-0.0315094	
1737115885859	0.16242981	
1737115885860	0.13496399	
1737115885861	0.10284424	
1737115885862	0.09140015	
1737115885863	0.07789612	
1737115885864	0.16189575	
1737115885865	0.18386841	
1737115885866	0.1184845	
1737115885867	0.04386902	
1737115885868	-0.02822876	
1737115885869	-0.07194519	
1737115885870	-0.10772705	
1737115885871	-0.10017395	
1737115885872	0.033493042	
1737115885873	0.05393982	
1737115885874	-0.0806427	
1737115885875	-0.12741089	
1737115885876	-0.18714905	
1737115885877	-0.22544861	
1737115885878	-0.18791199	
1737115885879	-0.07545471	
1737115885880	0.051345825	
1737115885881	0.011749268	
1737115885882	0.020065308	
1737115885883	0.10139465	
1737115885884	0.11604309	
1737115885885	0.13557434	
1737115885886	0.113220215	
1737115885887	0.046310425	
1737115885888	-0.03730774	
1737115885889	-0.10139465	
1737115885890	-0.07675171	
1737115885891	-0.029220581	
1737115885892	0.009155273	
1737115885893	0.03929138	
1737115885894	0.033493042	
1737115885895	0.02746582	
1737115885896	0.022735596	
1737115885897	0.0063323975	
1737115885898	0.00831604	
1737115885899	0.028457642	
1737115885900	-0.0077056885	
1737115885901	-0.0655365	
1737115885902	-0.05722046	
1737115885903	-0.022659302	
1737115885904	0.03227234	
1737115885905	0.047683716	
1737115885906	0.02067566	
1737115885907	0.02243042	
1737115885908	0.02708435	
1737115885909	0.0022888184	
1737115885910	-0.03303528	
1737115885911	-0.030059814	
1737115885912	-0.011444092	
1737115885913	-0.0036621094	
1737115885914	0.0021362305	
1737115885915	0.0063323975	
1737115885916	-0.004196167	
1737115885917	-0.010986328	
1737115885918	0.0049591064	
1737115885919	0.015029907	
1737115885920	0.030288696	
1737115885921	0.02571106	
1737115885922	-0.0048828125	
1737115885923	-0.006942749	
1737115885924	0.0132751465	
1737115885925	0.015563965	
1737115885926	-0.010299683	
1737115885927	-0.025787354	
1737115885928	-0.012893677	
1737115885929	-0.033111572	
1737115885930	-0.04623413	
1737115885931	-0.0077819824	
1737115885932	0.022354126	
1737115885933	0.035629272	
1737115885934	0.05126953	
1737115885935	0.06225586	
1737115885936	0.030212402	
1737115885937	-0.027160645	
1737115885938	-0.039901733	
1737115885939	-0.025482178	
1737115885940	-0.02456665	
1737115885941	-0.010147095	
1737115885942	0.0074768066	
1737115885943	-0.003967285	
1737115885944	0.008468628	
1737115885945	0.008468628	
1737115885946	-0.018615723	
1737115885947	-0.015792847	
1737115885948	-0.013122559	
1737115885949	-0.013809204	
1737115885950	-0.013427734	
1737115885951	-0.005569458	
1737115885952	0.002746582	
1737115885953	-0.0016021729	
1737115885954	0.0038909912	
1737115885955	0.008926392	
1737115885956	0.005722046	
1737115885957	7.6293945E-4	
1737115885958	0.004272461	
1737115885959	0.009536743	
1737115885960	0.008163452	
1737115885961	0.006713867	
1737115885962	-0.0029754639	
1737115885963	-0.009765625	
1737115885964	-0.0077056885	
1737115885965	-0.008773804	
1737115885966	-0.00289917	
1737115885967	0.0021362305	
1737115885968	-0.0015258789	
1737115885969	-0.005264282	
1737115885970	-0.0065612793	
1737115885971	-0.005569458	
1737115885972	-0.0035858154	
1737115885973	0.0038909912	
1737115885974	0.01625061	
1737115885975	0.023956299	
1737115885976	0.010681152	
1737115885977	0.0012969971	
1737115885978	0.009841919	
1737115885979	0.008087158	
1737115885980	0.0016021729	
1737115885981	-0.004043579	
1737115885982	-0.00869751	
1737115885983	-0.009689331	
1737115885984	-0.012207031	
1737115885985	-0.011978149	
1737115885986	-0.012664795	
1737115885987	-0.013885498	
1737115885988	-0.004501343	
1737115885989	6.1035156E-4	
1737115885990	-0.0032806396	
1737115885991	0.0074005127	
1737115885992	0.0063323975	
1737115885993	-0.0051116943	
1737115885994	0.011749268	
1737115885995	0.016326904	
1737115885996	0.0073242188	
1737115885997	0.017852783	
1737115885998	0.020370483	
1737115885999	0.027694702	
1737115886000	0.038528442	
1737115886001	0.034561157	
1737115886002	0.038986206	
1737115886003	0.03715515	
1737115886004	0.016937256	
1737115886005	-8.392334E-4	
1737115886006	-0.0061798096	
1737115886007	-0.004348755	
1737115886008	-0.023498535	
1737115886009	-0.046081543	
1737115886010	-0.032348633	
1737115886011	-0.007019043	
1737115886012	0.0030517578	
1737115886013	-0.0024414062	
1737115886014	0.0035095215	
1737115886015	0.024871826	
1737115886016	-0.0034332275	
1737115886017	-0.043029785	
1737115886018	-0.04234314	
1737115886019	-0.050048828	
1737115886020	-0.06210327	
1737115886021	-0.059280396	
1737115886022	-0.059051514	
1737115886023	-0.041427612	
1737115886024	-0.0045776367	
1737115886025	0.01838684	
1737115886026	0.011444092	
1737115886027	-0.014266968	
1737115886028	-0.0064849854	
1737115886029	0.023498535	
1737115886030	0.031814575	
1737115886031	0.04989624	
1737115886032	0.0705719	
1737115886033	0.06744385	
1737115886034	0.043411255	
1737115886035	0.015411377	
1737115886036	0.005569458	
1737115886037	-0.009460449	
1737115886038	-0.02418518	
1737115886039	-0.0037384033	
1737115886040	0.032958984	
1737115886041	0.044326782	
1737115886042	0.030059814	
1737115886043	0.01991272	
1737115886044	-0.022659302	
1737115886045	-0.061950684	
1737115886046	-0.060195923	
1737115886047	-0.066223145	
1737115886048	-0.062942505	
1737115886049	-0.05340576	
1737115886050	-0.031967163	
1737115886051	-0.0132751465	
1737115886052	-0.020751953	
1737115886053	-0.017471313	
1737115886054	-0.013885498	
1737115886055	0.017700195	
1737115886056	0.050201416	
1737115886057	0.021820068	
1737115886058	-0.028839111	
1737115886059	-0.06340027	
1737115886060	-0.0856781	
1737115886061	-0.04776001	
1737115886062	0.041275024	
1737115886063	0.09750366	
1737115886064	0.1184082	
1737115886065	0.10177612	
1737115886066	0.066986084	
1737115886067	0.060806274	
1737115886068	0.0592041	
1737115886069	0.050582886	
1737115886070	0.02494812	
1737115886071	-0.005493164	
1737115886072	0.010528564	
1737115886073	0.054626465	
1737115886074	0.10734558	
1737115886075	0.16265869	
1737115886076	0.15182495	
1737115886077	0.0844574	
1737115886078	0.03578186	
1737115886079	-0.03501892	
1737115886080	-0.1108551	
1737115886081	-0.14816284	
1737115886082	-0.14732361	
1737115886083	-0.11405945	
1737115886084	-0.1083374	
1737115886085	-0.120773315	
1737115886086	-0.12008667	
1737115886087	-0.11230469	
1737115886088	-0.08872986	
1737115886089	-0.07400513	
1737115886090	-0.07774353	
1737115886091	-0.0693512	
1737115886092	-0.027542114	
1737115886093	0.0060272217	
1737115886094	-0.009765625	
1737115886095	-0.009918213	
1737115886096	0.051956177	
1737115886097	0.114364624	
1737115886098	0.12901306	
1737115886099	0.108795166	
1737115886100	0.0592041	
1737115886101	0.0021362305	
1737115886102	-0.045318604	
1737115886103	-0.077819824	
1737115886104	-0.08605957	
1737115886105	-0.081329346	
1737115886106	-0.05241394	
1737115886107	-0.0019073486	
1737115886108	0.04928589	
1737115886109	0.074920654	
1737115886110	0.06851196	
1737115886111	0.089416504	
1737115886112	0.094833374	
1737115886113	0.07476807	
1737115886114	0.094070435	
1737115886115	0.100250244	
1737115886116	0.06271362	
1737115886117	0.00869751	
1737115886118	-0.00831604	
1737115886119	0.01739502	
1737115886120	0.044555664	
1737115886121	0.066986084	
1737115886122	0.046920776	
1737115886123	0.03845215	
1737115886124	0.052947998	
1737115886125	0.026931763	
1737115886126	-0.014877319	
1737115886127	-0.06523132	
1737115886128	-0.10116577	
1737115886129	-0.08476257	
1737115886130	-0.0717926	
1737115886131	-0.08140564	
1737115886132	-0.06729126	
1737115886133	-0.019302368	
1737115886134	0.048065186	
1737115886135	0.07095337	
1737115886136	0.03593445	
1737115886137	0.031661987	
1737115886138	0.007095337	
1737115886139	-0.10368347	
1737115886140	-0.18119812	
1737115886141	-0.18470764	
1737115886142	-0.19996643	
1737115886143	-0.19485474	
1737115886144	-0.128479	
1737115886145	-0.079574585	
1737115886146	-0.041503906	
1737115886147	-0.010147095	
1737115886148	0.011749268	
1737115886149	0.033416748	
1737115886150	0.04272461	
1737115886151	0.049209595	
1737115886152	0.059814453	
1737115886153	0.103759766	
1737115886154	0.14144897	
1737115886155	0.1171875	
1737115886156	0.13381958	
1737115886157	0.14343262	
1737115886158	0.09559631	
1737115886159	0.0995636	
1737115886160	0.11558533	
1737115886161	0.100631714	
1737115886162	0.07698059	
1737115886163	0.04447937	
1737115886164	0.028686523	
1737115886165	-0.0075531006	
1737115886166	-0.06576538	
1737115886167	-0.08850098	
1737115886168	-0.10307312	
1737115886169	-0.106277466	
1737115886170	-0.07110596	
1737115886171	-0.052108765	
1737115886172	-0.0667572	
1737115886173	-0.0945282	
1737115886174	-0.09422302	
1737115886175	-0.042648315	
1737115886176	0.023727417	
1737115886177	0.075149536	
1737115886178	0.086364746	
1737115886179	0.087127686	
1737115886180	0.08232117	
1737115886181	0.055618286	
1737115886182	0.03227234	
1737115886183	0.016021729	
1737115886184	-0.005340576	
1737115886185	-9.918213E-4	
1737115886186	0.024108887	
1737115886187	-0.0037384033	
1737115886188	-0.069122314	
1737115886189	-0.07400513	
1737115886190	-0.0390625	
1737115886191	-0.020065308	
1737115886192	0.013046265	
1737115886193	0.04005432	
1737115886194	0.04623413	
1737115886195	0.05760193	
1737115886196	0.06706238	
1737115886197	0.050354004	
1737115886198	0.020828247	
1737115886199	-0.026855469	
1737115886200	-0.073394775	
1737115886201	-0.08369446	
1737115886202	-0.08079529	
1737115886203	-0.079956055	
1737115886204	-0.07858276	
1737115886205	-0.066986084	
1737115886206	-0.06309509	
1737115886207	-0.082855225	
1737115886208	-0.062179565	
1737115886209	-0.026550293	
1737115886210	-0.029144287	
1737115886211	-0.017318726	
1737115886212	-0.0064086914	
1737115886213	-0.012054443	
1737115886214	0.017929077	
1737115886215	0.045013428	
1737115886216	0.03829956	
1737115886217	0.04135132	
1737115886218	0.042037964	
1737115886219	0.03173828	
1737115886220	0.038223267	
1737115886221	0.05027771	
1737115886222	0.06607056	
1737115886223	0.09559631	
1737115886224	0.10787964	
1737115886225	0.07659912	
1737115886226	0.023498535	
1737115886227	-0.023651123	
1737115886228	-0.0541687	
1737115886229	-0.048599243	
1737115886230	-0.019226074	
1737115886231	-0.0024414062	
1737115886232	-0.0038146973	
1737115886233	0.018234253	
1737115886234	0.034866333	
1737115886235	0.004119873	
1737115886236	0.0064086914	
1737115886237	0.008621216	
1737115886238	-0.041427612	
1737115886239	-0.024108887	
1737115886240	0.017471313	
1737115886241	-0.0036621094	
1737115886242	-0.011291504	
1737115886243	-0.018539429	
1737115886244	-0.037384033	
1737115886245	-0.05935669	
1737115886246	-0.06324768	
1737115886247	-0.0011444092	
1737115886248	0.036010742	
1737115886249	0.06866455	
1737115886250	0.101242065	
1737115886251	0.04890442	
1737115886252	0.014953613	
1737115886253	0.011520386	
1737115886254	0.017929077	
1737115886255	0.022277832	
1737115886256	-0.01777649	
1737115886257	-0.043411255	
1737115886258	-0.04875183	
1737115886259	-0.048065186	
1737115886260	-0.053482056	
1737115886261	-0.06324768	
1737115886262	-0.076293945	
1737115886263	-0.05493164	
1737115886264	-0.011520386	
1737115886265	-0.010910034	
1737115886266	0.0020599365	
1737115886267	0.030136108	
1737115886268	0.03677368	
1737115886269	0.04676819	
1737115886270	0.042800903	
1737115886271	0.023956299	
1737115886272	0.0059509277	
1737115886273	0.01449585	
1737115886274	0.01411438	
1737115886275	-0.0037384033	
1737115886276	0.004425049	
1737115886277	0.0	
1737115886278	-0.0051879883	
1737115886279	0.002822876	
1737115886280	-0.009536743	
1737115886281	-0.056762695	
1737115886282	-0.08956909	
1737115886283	-0.04272461	
1737115886284	0.008010864	
1737115886285	0.024719238	
1737115886286	0.05279541	
1737115886287	0.058746338	
1737115886288	0.054016113	
1737115886289	0.04524231	
1737115886290	0.018997192	
1737115886291	0.0029754639	
1737115886292	0.0047302246	
1737115886293	0.025253296	
1737115886294	0.049819946	
1737115886295	0.04928589	
1737115886296	-4.5776367E-4	
1737115886297	-0.072631836	
1737115886298	-0.065841675	
1737115886299	-0.010604858	
1737115886300	-0.009841919	
1737115886301	-0.034179688	
1737115886302	-0.050964355	
1737115886303	-0.047683716	
1737115886304	-0.015411377	
1737115886305	-0.00793457	
1737115886306	-0.008926392	
1737115886307	0.029830933	
1737115886308	0.08796692	
1737115886309	0.097961426	
1737115886310	0.05142212	
1737115886311	0.0076293945	
1737115886312	-0.041046143	
1737115886313	-0.10116577	
1737115886314	-0.1676178	
1737115886315	-0.19294739	
1737115886316	-0.14328003	
1737115886317	-0.06484985	
1737115886318	0.044403076	
1737115886319	0.108566284	
1737115886320	0.10932922	
1737115886321	0.120773315	
1737115886322	0.104904175	
1737115886323	0.083847046	
1737115886324	0.07987976	
1737115886325	0.06851196	
1737115886326	0.05821228	
1737115886327	0.033721924	
1737115886328	0.023040771	
1737115886329	0.01777649	
1737115886330	-0.0061035156	
1737115886331	-0.01449585	
1737115886332	-0.053634644	
1737115886333	-0.094680786	
1737115886334	-0.041809082	
1737115886335	0.01083374	
1737115886336	0.025024414	
1737115886337	0.03303528	
1737115886338	0.025863647	
1737115886339	0.029525757	
1737115886340	0.002822876	
1737115886341	-0.04875183	
1737115886342	-0.07865906	
1737115886343	-0.10131836	
1737115886344	-0.10231018	
1737115886345	-0.079422	
1737115886346	-0.0340271	
1737115886347	0.036239624	
1737115886348	0.043563843	
1737115886349	-0.02670288	
1737115886350	-0.072021484	
1737115886351	-0.0541687	
1737115886352	0.0119018555	
1737115886353	0.07949829	
1737115886354	0.108184814	
1737115886355	0.1210022	
1737115886356	0.072784424	
1737115886357	-0.049972534	
1737115886358	-0.09674072	
1737115886359	-0.06378174	
1737115886360	-0.03211975	
1737115886361	-0.011062622	
1737115886362	-0.006713867	
1737115886363	0.01701355	
1737115886364	0.04371643	
1737115886365	0.07965088	
1737115886366	0.105285645	
1737115886367	0.07545471	
1737115886368	0.0806427	
1737115886369	0.07072449	
1737115886370	-0.010528564	
1737115886371	-0.07354736	
1737115886372	-0.10757446	
1737115886373	-0.09765625	
1737115886374	-0.07247925	
1737115886375	-0.06858826	
1737115886376	-0.049438477	
1737115886377	-0.026016235	
1737115886378	0.016479492	
1737115886379	0.07659912	
1737115886380	0.10131836	
1737115886381	0.056533813	
1737115886382	0.011291504	
1737115886383	-0.013122559	
1737115886384	-0.05317688	
1737115886385	-0.08850098	
1737115886386	-0.12313843	
1737115886387	-0.1071167	
1737115886388	-0.02822876	
1737115886389	0.024642944	
1737115886390	0.038757324	
1737115886391	0.096206665	
1737115886392	0.1663971	
1737115886393	0.09864807	
1737115886394	-0.025634766	
1737115886395	-0.08140564	
1737115886396	-0.14175415	
1737115886397	-0.14083862	
1737115886398	-0.0059509277	
1737115886399	0.12947083	
1737115886400	0.17585754	
1737115886401	0.15411377	
1737115886402	0.13526917	
1737115886403	0.109939575	
1737115886404	0.07316589	
1737115886405	0.0605011	
1737115886406	0.012588501	
1737115886407	-0.030288696	
1737115886408	-0.037612915	
1737115886409	-0.08491516	
1737115886410	-0.08850098	
1737115886411	-0.075912476	
1737115886412	-0.12413025	
1737115886413	-0.11123657	
1737115886414	-0.06980896	
1737115886415	-0.09246826	
1737115886416	-0.103149414	
1737115886417	-0.04020691	
1737115886418	0.047836304	
1737115886419	0.079956055	
1737115886420	0.060806274	
1737115886421	0.035705566	
1737115886422	0.08224487	
1737115886423	0.1600647	
1737115886424	0.17562866	
1737115886425	0.20423889	
1737115886426	0.22453308	
1737115886427	0.13618469	
1737115886428	-0.03540039	
1737115886429	-0.15708923	
1737115886430	-0.24215698	
1737115886431	-0.33859253	
1737115886432	-0.3640747	
1737115886433	-0.30410767	
1737115886434	-0.20553589	
1737115886435	-0.12702942	
1737115886436	-0.067596436	
1737115886437	0.019302368	
1737115886438	0.117111206	
1737115886439	0.13961792	
1737115886440	0.15792847	
1737115886441	0.117874146	
1737115886442	0.0066375732	
1737115886443	-0.029220581	
1737115886444	0.009155273	
1737115886445	0.061264038	
1737115886446	0.091781616	
1737115886447	0.07484436	
1737115886448	0.056228638	
1737115886449	0.029525757	
1737115886450	-0.011291504	
1737115886451	-0.005569458	
1737115886452	-0.02029419	
1737115886453	-0.033721924	
1737115886454	0.04005432	
1737115886455	0.107040405	
1737115886456	0.106658936	
1737115886457	0.07827759	
1737115886458	0.0579834	
1737115886459	0.05607605	
1737115886460	0.03173828	
1737115886461	0.022964478	
1737115886462	0.023117065	
1737115886463	-0.0061798096	
1737115886464	0.0030517578	
1737115886465	0.008468628	
1737115886466	0.0011444092	
1737115886467	-7.6293945E-4	
1737115886468	-0.019760132	
1737115886469	-0.015182495	
1737115886470	-0.010681152	
1737115886471	-0.015792847	
1737115886472	-0.0065612793	
1737115886473	0.0022888184	
1737115886474	0.011672974	
1737115886475	0.03540039	
1737115886476	0.0592041	
1737115886477	0.046157837	
1737115886478	0.002670288	
1737115886479	-0.03616333	
1737115886480	-0.05393982	
1737115886481	-0.060424805	
1737115886482	-0.08705139	
1737115886483	-0.11291504	
1737115886484	-0.1158905	
1737115886485	-0.11665344	
1737115886486	-0.11253357	
1737115886487	-0.105667114	
1737115886488	-0.091781616	
1737115886489	-0.06706238	
1737115886490	-0.040740967	
1737115886491	-0.010528564	
1737115886492	0.014419556	
1737115886493	0.02128601	
1737115886494	0.025253296	
1737115886495	0.036087036	
1737115886496	0.03387451	
1737115886497	0.029067993	
1737115886498	0.043563843	
1737115886499	0.056228638	
1737115886500	0.05836487	
1737115886501	0.06881714	
1737115886502	0.05531311	
1737115886503	0.022888184	
1737115886504	0.02708435	
1737115886505	0.034179688	
1737115886506	0.029754639	
1737115886507	0.034332275	
1737115886508	0.03753662	
1737115886509	0.040740967	
1737115886510	0.018692017	
1737115886511	0.009841919	
1737115886512	0.021896362	
1737115886513	0.009155273	
1737115886514	0.012969971	
1737115886515	0.019989014	
1737115886516	0.0090789795	
1737115886517	0.0050354004	
1737115886518	-0.010681152	
1737115886519	-0.017242432	
1737115886520	-0.016098022	
1737115886521	-0.021591187	
1737115886522	-0.019607544	
1737115886523	-0.025634766	
1737115886524	-0.020217896	
1737115886525	0.004501343	
1737115886526	0.02357483	
1737115886527	0.03501892	
1737115886528	0.02128601	
1737115886529	0.0035858154	
1737115886530	-0.00831604	
1737115886531	-0.01914978	
1737115886532	-0.029144287	
1737115886533	-0.036697388	
1737115886534	-0.024490356	
1737115886535	-0.014724731	
1737115886536	-0.02861023	
1737115886537	-0.036697388	
1737115886538	-0.028457642	
1737115886539	-0.024108887	
1737115886540	-0.024261475	
1737115886541	-0.024795532	
1737115886542	-0.021209717	
1737115886543	-0.014190674	
1737115886544	-0.01121521	
1737115886545	-0.012741089	
1737115886546	-0.00541687	
1737115886547	0.0012207031	
1737115886548	-6.1035156E-4	
1737115886549	0.0061798096	
1737115886550	0.0064849854	
1737115886551	0.014343262	
1737115886552	0.028457642	
1737115886553	0.015792847	
1737115886554	0.015716553	
1737115886555	0.020065308	
1737115886556	0.009307861	
1737115886557	0.015716553	
1737115886558	0.022659302	
1737115886559	0.034713745	
1737115886560	0.041275024	
1737115886561	0.024032593	
1737115886562	0.018234253	
1737115886563	0.018692017	
1737115886564	0.017166138	
1737115886565	0.009765625	
1737115886566	-0.004043579	
1737115886567	-0.0060272217	
1737115886568	0.0032806396	
1737115886569	0.013198853	
1737115886570	0.0065612793	
1737115886571	-0.0025939941	
1737115886572	-0.015029907	
1737115886573	-0.032958984	
1737115886574	-0.026397705	
1737115886575	-0.024032593	
1737115886576	-0.040664673	
1737115886577	-0.03982544	
1737115886578	-0.025100708	
1737115886579	-0.014953613	
1737115886580	-0.01159668	
1737115886581	-0.017318726	
1737115886582	-0.012817383	
1737115886583	0.0025177002	
1737115886584	0.0035858154	
1737115886585	0.0019836426	
1737115886586	0.0074768066	
1737115886587	0.011978149	
1737115886588	0.007171631	
1737115886589	7.6293945E-4	
1737115886590	0.009307861	
1737115886591	0.018157959	
1737115886592	0.021362305	
1737115886593	0.026016235	
1737115886594	0.032730103	
1737115886595	0.04043579	
1737115886596	0.04081726	
1737115886597	0.03463745	
1737115886598	0.020599365	
1737115886599	0.004196167	
1737115886600	8.392334E-4	
1737115886601	0.0012207031	
1737115886602	-0.007171631	
1737115886603	-0.020828247	
1737115886604	-0.010528564	
1737115886605	0.0011444092	
1737115886606	-0.005264282	
1737115886607	-0.013656616	
1737115886608	-0.01914978	
1737115886609	-0.021743774	
1737115886610	-0.03135681	
1737115886611	-0.037231445	
1737115886612	-0.026245117	
1737115886613	-0.028381348	
1737115886614	-0.04272461	
1737115886615	-0.03036499	
1737115886616	-0.01373291	
1737115886617	-0.007247925	
1737115886618	-0.0023651123	
1737115886619	-7.6293945E-4	
1737115886620	0.0045776367	
1737115886621	0.004425049	
1737115886622	0.006790161	
1737115886623	0.015716553	
1737115886624	0.012054443	
1737115886625	0.014419556	
1737115886626	0.01625061	
1737115886627	0.015640259	
1737115886628	0.03501892	
1737115886629	0.035858154	
1737115886630	0.012817383	
1737115886631	0.009765625	
1737115886632	0.0060272217	
1737115886633	-0.005874634	
1737115886634	0.001373291	
1737115886635	0.0051116943	
1737115886636	0.0059509277	
1737115886637	0.008087158	
1737115886638	5.340576E-4	
1737115886639	0.0017547607	
1737115886640	-0.005874634	
1737115886641	-0.015640259	
1737115886642	-0.0022125244	
1737115886643	-0.003967285	
1737115886644	-0.012435913	
1737115886645	-0.013046265	
1737115886646	-0.02128601	
1737115886647	-0.01625061	
1737115886648	-0.01625061	
1737115886649	-0.012893677	
1737115886650	0.011520386	
1737115886651	0.019378662	
1737115886652	0.009307861	
1737115886653	-0.0037384033	
1737115886654	-9.1552734E-4	
1737115886655	0.0065612793	
1737115886656	0.0018310547	
1737115886657	-0.0017547607	
1737115886658	0.0010681152	
1737115886659	0.008010864	
1737115886660	0.0146484375	
1737115886661	0.013122559	
1737115886662	-0.0015258789	
1737115886663	-0.0104522705	
1737115886664	-0.0029754639	
1737115886665	0.0017547607	
1737115886666	0.0047302246	
1737115886667	-0.0016784668	
1737115886668	-0.004348755	
1737115886669	2.2888184E-4	
1737115886670	0.004196167	
1737115886671	0.010604858	
1737115886672	3.0517578E-4	
1737115886673	-0.016937256	
1737115886674	-0.015716553	
1737115886675	-0.023956299	
1737115886676	-0.023422241	
1737115886677	-1.5258789E-4	
1737115886678	0.01335144	
1737115886679	0.028152466	
1737115886680	0.025787354	
1737115886681	0.011367798	
1737115886682	0.0050354004	
1737115886683	-0.001449585	
1737115886684	0.013504028	
1737115886685	0.0119018555	
1737115886686	0.0019836426	
1737115886687	0.0061798096	
1737115886688	-0.0050354004	
1737115886689	3.8146973E-4	
1737115886690	0.021057129	
1737115886691	0.010986328	
1737115886692	-0.013885498	
1737115886693	-0.021896362	
1737115886694	-0.011672974	
1737115886695	-0.01449585	
1737115886696	-0.02532959	
1737115886697	-0.025253296	
1737115886698	-0.03578186	
1737115886699	-0.044937134	
1737115886700	-0.027389526	
1737115886701	-9.918213E-4	
1737115886702	0.0045776367	
1737115886703	0.009536743	
1737115886704	0.015792847	
1737115886705	0.007858276	
1737115886706	0.009918213	
1737115886707	-0.002670288	
1737115886708	-0.01411438	
1737115886709	0.0060272217	
1737115886710	0.020904541	
1737115886711	0.03555298	
1737115886712	0.048065186	
1737115886713	0.024490356	
1737115886714	-0.0064849854	
1737115886715	-0.008621216	
1737115886716	-0.024108887	
1737115886717	-0.045776367	
1737115886718	-0.032958984	
1737115886719	-0.009460449	
1737115886720	0.016860962	
1737115886721	0.023117065	
1737115886722	-0.0029754639	
1737115886723	-0.0048065186	
1737115886724	0.03303528	
1737115886725	0.06767273	
1737115886726	0.049743652	
1737115886727	0.0045776367	
1737115886728	0.0031280518	
1737115886729	0.012054443	
1737115886730	-0.0022888184	
1737115886731	-0.010375977	
1737115886732	-0.0011444092	
1737115886733	-0.003967285	
1737115886734	-0.0315094	
1737115886735	-0.027389526	
1737115886736	0.013427734	
1737115886737	0.031585693	
1737115886738	0.035476685	
1737115886739	0.032958984	
1737115886740	0.008392334	
1737115886741	-0.022506714	
1737115886742	-0.04623413	
1737115886743	-0.020065308	
1737115886744	0.021591187	
1737115886745	0.026321411	
1737115886746	0.04234314	
1737115886747	0.043258667	
1737115886748	-9.918213E-4	
1737115886749	-0.032348633	
1737115886750	-0.034713745	
1737115886751	-0.025177002	
1737115886752	0.008239746	
1737115886753	0.02166748	
1737115886754	0.0019836426	
1737115886755	-0.016403198	
1737115886756	-0.051651	
1737115886757	-0.072021484	
1737115886758	-0.070114136	
1737115886759	-0.06492615	
1737115886760	-0.038146973	
1737115886761	-0.061416626	
1737115886762	-0.082473755	
1737115886763	-0.049591064	
1737115886764	-0.08529663	
1737115886765	-0.096969604	
1737115886766	-0.022659302	
1737115886767	0.023040771	
1737115886768	0.011062622	
1737115886769	-0.02494812	
1737115886770	0.023651123	
1737115886771	0.07110596	
1737115886772	0.06858826	
1737115886773	0.11703491	
1737115886774	0.1222229	
1737115886775	0.08430481	
1737115886776	0.07728577	
1737115886777	0.06965637	
1737115886778	0.05760193	
1737115886779	0.052108765	
1737115886780	0.053024292	
1737115886781	0.019760132	
1737115886782	-0.023117065	
1737115886783	0.011062622	
1737115886784	0.082092285	
1737115886785	0.06271362	
1737115886786	-0.03425598	
1737115886787	-0.055999756	
1737115886788	-0.032577515	
1737115886789	-0.04699707	
1737115886790	-0.0730896	
1737115886791	-0.0881958	
1737115886792	-0.019454956	
1737115886793	0.08598328	
1737115886794	0.14938354	
1737115886795	0.15182495	
1737115886796	0.047836304	
1737115886797	-0.04333496	
1737115886798	-0.08560181	
1737115886799	-0.2191925	
1737115886800	-0.26168823	
1737115886801	-0.09437561	
1737115886802	0.020980835	
1737115886803	0.012817383	
1737115886804	-0.0073242188	
1737115886805	0.0061798096	
1737115886806	0.050811768	
1737115886807	0.026931763	
1737115886808	-0.0066375732	
1737115886809	0.043182373	
1737115886810	0.07835388	
1737115886811	0.050582886	
1737115886812	0.015182495	
1737115886813	0.0059509277	
1737115886814	0.018463135	
1737115886815	0.034942627	
1737115886816	0.034561157	
1737115886817	-0.017318726	
1737115886818	-0.08018494	
1737115886819	-0.15411377	
1737115886820	-0.18859863	
1737115886821	-0.08758545	
1737115886822	0.007858276	
1737115886823	0.06645203	
1737115886824	0.122680664	
1737115886825	0.09124756	
1737115886826	0.055999756	
1737115886827	-0.0065612793	
1737115886828	-0.11550903	
1737115886829	-0.13656616	
1737115886830	-0.100631714	
1737115886831	-0.0032043457	
1737115886832	0.13580322	
1737115886833	0.14854431	
1737115886834	0.14701843	
1737115886835	0.14686584	
1737115886836	0.033493042	
1737115886837	-0.019073486	
1737115886838	-0.02029419	
1737115886839	-0.036849976	
1737115886840	-0.0059509277	
1737115886841	0.018692017	
1737115886842	-0.02494812	
1737115886843	-0.11199951	
1737115886844	-0.100097656	
1737115886845	0.04295349	
1737115886846	0.10406494	
1737115886847	0.05569458	
1737115886848	0.006942749	
1737115886849	-0.083618164	
1737115886850	-0.13923645	
1737115886851	-0.12634277	
1737115886852	-0.107421875	
1737115886853	0.0031280518	
1737115886854	0.094070435	
1737115886855	0.0390625	
1737115886856	-0.009689331	
1737115886857	0.04219055	
1737115886858	0.075531006	
1737115886859	0.045928955	
1737115886860	0.060806274	
1737115886861	0.050201416	
1737115886862	0.024719238	
1737115886863	0.046463013	
1737115886864	0.040740967	
1737115886865	0.081100464	
1737115886866	0.1512146	
1737115886867	0.09941101	
1737115886868	-0.011520386	
1737115886869	-0.082473755	
1737115886870	-0.15800476	
1737115886871	-0.23086548	
1737115886872	-0.1902008	
1737115886873	-0.13389587	
1737115886874	-0.10261536	
1737115886875	0.020751953	
1737115886876	0.09399414	
1737115886877	0.08102417	
1737115886878	0.054626465	
1737115886879	0.06416321	
1737115886880	0.111846924	
1737115886881	0.059890747	
1737115886882	0.011138916	
1737115886883	0.0554657	
1737115886884	0.04219055	
1737115886885	-0.06324768	
1737115886886	-0.111465454	
1737115886887	-0.057296753	
1737115886888	-0.061645508	
1737115886889	-0.11543274	
1737115886890	-0.12763977	
1737115886891	-0.107040405	
1737115886892	-0.050201416	
1737115886893	0.005493164	
1737115886894	0.08872986	
1737115886895	0.16471863	
1737115886896	0.10864258	
1737115886897	0.037612915	
1737115886898	0.039749146	
1737115886899	-0.0038909912	
1737115886900	-0.04585266	
1737115886901	0.025177002	
1737115886902	0.07720947	
1737115886903	0.036621094	
1737115886904	0.03692627	
1737115886905	0.043029785	
1737115886906	0.023956299	
1737115886907	0.016479492	
1737115886908	0.022354126	
1737115886909	0.025253296	
1737115886910	-0.008621216	
1737115886911	-0.016708374	
1737115886912	-0.0104522705	
1737115886913	-0.023498535	
1737115886914	-0.019454956	
1737115886915	-0.026321411	
1737115886916	-0.033569336	
1737115886917	-0.0289917	
1737115886918	-0.020065308	
1737115886919	-0.014572144	
1737115886920	-0.017852783	
1737115886921	-0.03227234	
1737115886922	-0.037002563	
1737115886923	-0.02357483	
1737115886924	-0.01777649	
1737115886925	5.340576E-4	
1737115886926	0.0033569336	
1737115886927	-0.021514893	
1737115886928	-0.0020599365	
1737115886929	0.016784668	
1737115886930	0.0073242188	
1737115886931	-0.004272461	
1737115886932	-0.0019836426	
1737115886933	4.5776367E-4	
1737115886934	-0.008926392	
1737115886935	-0.017166138	
1737115886936	-0.021743774	
1737115886937	0.004272461	
1737115886938	0.0315094	
1737115886939	0.03967285	
1737115886940	0.03540039	
1737115886941	0.01159668	
1737115886942	0.019378662	
1737115886943	0.04524231	
1737115886944	0.021820068	
1737115886945	0.005340576	
1737115886946	0.0048828125	
1737115886947	-0.0046539307	
1737115886948	-0.0051879883	
1737115886949	-0.0034332275	
1737115886950	0.0012207031	
1737115886951	-6.1035156E-4	
1737115886952	-0.008621216	
1737115886953	-0.011672974	
1737115886954	-0.01625061	
1737115886955	-0.009841919	
1737115886956	0.00831604	
1737115886957	0.012130737	
1737115886958	0.0015258789	
1737115886959	-0.008621216	
1737115886960	-0.014343262	
1737115886961	-0.013198853	
1737115886962	-0.021820068	
1737115886963	-0.024490356	
1737115886964	-0.0051879883	
1737115886965	0.009689331	
1737115886966	0.005645752	
1737115886967	0.0074768066	
1737115886968	0.008239746	
1737115886969	0.0029754639	
1737115886970	7.6293945E-5	
1737115886971	-0.010528564	
1737115886972	-0.012664795	
1737115886973	-0.009613037	
1737115886974	-0.014953613	
1737115886975	-0.018463135	
1737115886976	-0.020904541	
1737115886977	-0.021896362	
1737115886978	-0.022583008	
1737115886979	-0.020065308	
1737115886980	-0.013656616	
1737115886981	-0.004043579	
1737115886982	0.012283325	
1737115886983	0.014038086	
1737115886984	0.012741089	
1737115886985	-0.0035858154	
1737115886986	-0.01121521	
1737115886987	0.030975342	
1737115886988	0.026931763	
1737115886989	0.012741089	
1737115886990	0.03845215	
1737115886991	0.035476685	
1737115886992	0.030517578	
1737115886993	0.027770996	
1737115886994	0.01625061	
1737115886995	0.019760132	
1737115886996	0.028381348	
1737115886997	0.033111572	
1737115886998	0.026550293	
1737115886999	0.01876831	
1737115887000	0.020446777	
1737115887001	0.0048828125	
1737115887002	-0.009002686	
1737115887003	-0.008773804	
1737115887004	-0.010681152	
1737115887005	-0.01449585	
1737115887006	-0.015106201	
1737115887007	-0.025787354	
1737115887008	-0.037231445	
1737115887009	-0.031280518	
1737115887010	-0.020980835	
1737115887011	-0.013504028	
1737115887012	-0.009841919	
1737115887013	0.015563965	
1737115887014	0.004501343	
1737115887015	-0.053634644	
1737115887016	-0.08522034	
1737115887017	-0.07583618	
1737115887018	-0.024795532	
1737115887019	0.016403198	
1737115887020	0.018920898	
1737115887021	0.011138916	
1737115887022	0.00831604	
1737115887023	0.015487671	
1737115887024	0.02357483	
1737115887025	0.040283203	
1737115887026	0.044937134	
1737115887027	0.029525757	
1737115887028	0.02357483	
1737115887029	0.02204895	
1737115887030	0.008392334	
1737115887031	-0.01663208	
1737115887032	-0.031280518	
1737115887033	-0.030441284	
1737115887034	-0.024871826	
1737115887035	-4.5776367E-4	
1737115887036	-0.0020599365	
1737115887037	-0.04425049	
1737115887038	-0.061416626	
1737115887039	-0.03555298	
1737115887040	0.0022888184	
1737115887041	0.009613037	
1737115887042	0.010528564	
1737115887043	0.015258789	
1737115887044	0.006866455	
1737115887045	0.0063323975	
1737115887046	0.014801025	
1737115887047	0.0104522705	
1737115887048	-0.011978149	
1737115887049	-0.028152466	
1737115887050	-0.031280518	
1737115887051	0.0045776367	
1737115887052	0.019683838	
1737115887053	-0.00289917	
1737115887054	0.008010864	
1737115887055	0.029373169	
1737115887056	0.027313232	
1737115887057	-0.004501343	
1737115887058	-0.017852783	
1737115887059	-0.02571106	
1737115887060	-0.02281189	
1737115887061	0.015106201	
1737115887062	0.018005371	
1737115887063	-0.001373291	
1737115887064	-6.866455E-4	
1737115887065	0.0018310547	
1737115887066	0.016784668	
1737115887067	0.05050659	
1737115887068	0.10887146	
1737115887069	0.1512146	
1737115887070	0.14541626	
1737115887071	0.15174866	
1737115887072	0.13816833	
1737115887073	0.06713867	
1737115887074	0.0065612793	
1737115887075	-0.028152466	
1737115887076	-0.05836487	
1737115887077	-0.06568909	
1737115887078	-0.06187439	
1737115887079	-0.08026123	
1737115887080	-0.09651184	
1737115887081	-0.08514404	
1737115887082	-0.07476807	
1737115887083	-0.0920105	
1737115887084	-0.10902405	
1737115887085	-0.09979248	
1737115887086	-0.0868988	
1737115887087	-0.08552551	
1737115887088	-0.06851196	
1737115887089	-0.061035156	
1737115887090	-0.0705719	
1737115887091	-0.057525635	
1737115887092	-0.041732788	
1737115887093	-0.022964478	
1737115887094	-0.004196167	
1737115887095	-0.010147095	
1737115887096	-0.016403198	
1737115887097	-0.012664795	
1737115887098	0.018157959	
1737115887099	0.074157715	
1737115887100	0.13504028	
1737115887101	0.18310547	
1737115887102	0.15815735	
1737115887103	0.11627197	
1737115887104	0.08544922	
1737115887105	0.05783081	
1737115887106	0.069122314	
1737115887107	0.043792725	
1737115887108	0.0048828125	
1737115887109	0.009918213	
1737115887110	0.0038146973	
1737115887111	0.019760132	
1737115887112	0.03387451	
1737115887113	0.019378662	
1737115887114	0.00869751	
1737115887115	-0.0048828125	
1737115887116	-0.012741089	
1737115887117	0.008850098	
1737115887118	0.017852783	
1737115887119	0.00541687	
1737115887120	-0.019302368	
1737115887121	-0.031967163	
1737115887122	-0.009918213	
1737115887123	-0.02708435	
1737115887124	-0.044174194	
1737115887125	-0.037231445	
1737115887126	-0.07484436	
1737115887127	-0.107803345	
1737115887128	-0.09223938	
1737115887129	-0.064697266	
1737115887130	-0.03829956	
1737115887131	0.00541687	
1737115887132	0.037002563	
1737115887133	0.020141602	
1737115887134	-0.010681152	
1737115887135	-0.036468506	
1737115887136	-0.051116943	
1737115887137	-0.035324097	
1737115887138	-0.0491333	
1737115887139	-0.09727478	
1737115887140	-0.059051514	
1737115887141	-0.02708435	
1737115887142	-0.031814575	
1737115887143	-0.011367798	
1737115887144	-0.006713867	
1737115887145	-0.009613037	
1737115887146	-0.0032043457	
1737115887147	0.037231445	
1737115887148	0.09490967	
1737115887149	0.11016846	
1737115887150	0.10505676	
1737115887151	0.1084137	
1737115887152	0.100097656	
1737115887153	0.06484985	
1737115887154	0.03364563	
1737115887155	-0.00579834	
1737115887156	-0.050582886	
1737115887157	-0.035705566	
1737115887158	-0.010147095	
1737115887159	0.0074005127	
1737115887160	0.02494812	
1737115887161	0.08392334	
1737115887162	0.11878967	
1737115887163	0.030822754	
1737115887164	0.002822876	
1737115887165	-0.0038146973	
1737115887166	-0.06790161	
1737115887167	-0.0819397	
1737115887168	-0.09162903	
1737115887169	-0.08743286	
1737115887170	-0.061950684	
1737115887171	-0.02609253	
1737115887172	0.029296875	
1737115887173	0.035629272	
1737115887174	0.02357483	
1737115887175	0.03883362	
1737115887176	0.050582886	
1737115887177	0.059051514	
1737115887178	0.04196167	
1737115887179	0.010986328	
1737115887180	-0.0066375732	
1737115887181	-0.025405884	
1737115887182	-0.03112793	
1737115887183	-0.01449585	
1737115887184	-0.0051116943	
1737115887185	-0.0060272217	
1737115887186	-0.014801025	
1737115887187	-0.012054443	
1737115887188	-0.0061798096	
1737115887189	-0.012664795	
1737115887190	-0.0118255615	
1737115887191	-0.005874634	
1737115887192	0.024337769	
1737115887193	0.01914978	
1737115887194	-0.00831604	
1737115887195	-0.007171631	
1737115887196	-0.022888184	
1737115887197	0.0016784668	
1737115887198	0.03692627	
1737115887199	0.0440979	
1737115887200	0.081100464	
1737115887201	0.06607056	
1737115887202	0.016326904	
1737115887203	-0.0034332275	
1737115887204	-0.056381226	
1737115887205	-0.11505127	
1737115887206	-0.13786316	
1737115887207	-0.121154785	
1737115887208	-0.077056885	
1737115887209	-0.060424805	
1737115887210	-0.05180359	
1737115887211	-0.03768921	
1737115887212	-0.021438599	
1737115887213	-0.0063323975	
1737115887214	-0.017242432	
1737115887215	-0.029220581	
1737115887216	-0.010604858	
1737115887217	0.046920776	
1737115887218	0.09590149	
1737115887219	0.09559631	
1737115887220	0.072402954	
1737115887221	0.03501892	
1737115887222	0.015945435	
1737115887223	0.018463135	
1737115887224	0.005493164	
1737115887225	-0.0077819824	
1737115887226	-0.005340576	
1737115887227	0.011520386	
1737115887228	0.026931763	
1737115887229	0.041122437	
1737115887230	0.04295349	
1737115887231	0.029830933	
1737115887232	0.02204895	
1737115887233	0.019683838	
1737115887234	0.02029419	
1737115887235	0.012893677	
1737115887236	0.012588501	
1737115887237	0.017089844	
1737115887238	0.012435913	
1737115887239	-0.0030517578	
1737115887240	-0.043792725	
1737115887241	-0.07232666	
1737115887242	-0.040512085	
1737115887243	0.0132751465	
1737115887244	0.020523071	
1737115887245	0.00869751	
1737115887246	0.010375977	
1737115887247	-0.012664795	
1737115887248	-0.029067993	
1737115887249	-0.02067566	
1737115887250	-0.012817383	
1737115887251	0.017318726	
1737115887252	0.03555298	
1737115887253	0.028686523	
1737115887254	0.025482178	
1737115887255	0.008468628	
1737115887256	0.008544922	
1737115887257	0.011138916	
1737115887258	0.001449585	
1737115887259	-0.005722046	
1737115887260	-0.0132751465	
1737115887261	-0.020141602	
1737115887262	-0.02746582	
1737115887263	-0.057678223	
1737115887264	-0.066986084	
1737115887265	-0.05355835	
1737115887266	-0.034942627	
1737115887267	-0.008621216	
1737115887268	0.009841919	
1737115887269	0.010986328	
1737115887270	0.022888184	
1737115887271	0.029373169	
1737115887272	-0.009918213	
1737115887273	-0.045547485	
1737115887274	-0.048599243	
1737115887275	-0.035858154	
1737115887276	-0.007019043	
1737115887277	0.04219055	
1737115887278	0.08010864	
1737115887279	0.053710938	
1737115887280	0.018997192	
1737115887281	0.018539429	
1737115887282	0.041275024	
1737115887283	0.049057007	
1737115887284	0.004425049	
1737115887285	-0.03692627	
1737115887286	-0.02708435	
1737115887287	-0.016479492	
1737115887288	-0.0016021729	
1737115887289	0.01953125	
1737115887290	0.0076293945	
1737115887291	0.022506714	
1737115887292	0.048828125	
1737115887293	0.034866333	
1737115887294	0.018920898	
1737115887295	0.00579834	
1737115887296	-0.020217896	
1737115887297	-0.07850647	
1737115887298	-0.108566284	
1737115887299	-0.0717926	
1737115887300	-0.060653687	
1737115887301	-0.04585266	
1737115887302	0.012512207	
1737115887303	0.05340576	
1737115887304	0.06309509	
1737115887305	0.021133423	
1737115887306	-0.02746582	
1737115887307	-0.03967285	
1737115887308	-0.050125122	
1737115887309	-0.040664673	
1737115887310	-0.015182495	
1737115887311	0.007095337	
1737115887312	0.05027771	
1737115887313	0.06813049	
1737115887314	0.049743652	
1737115887315	0.051956177	
1737115887316	0.041503906	
1737115887317	0.01625061	
1737115887318	0.009231567	
1737115887319	0.012664795	
1737115887320	0.026168823	
1737115887321	0.041275024	
1737115887322	0.066833496	
1737115887323	0.058670044	
1737115887324	0.011520386	
1737115887325	-0.009536743	
1737115887326	-0.030593872	
1737115887327	-0.047454834	
1737115887328	-0.061035156	
1737115887329	-0.112075806	
1737115887330	-0.12466431	
1737115887331	-0.04043579	
1737115887332	0.059051514	
1737115887333	0.09941101	
1737115887334	0.12107849	
1737115887335	0.111694336	
1737115887336	0.04020691	
1737115887337	-0.0021362305	
1737115887338	-0.035476685	
1737115887339	-0.075149536	
1737115887340	-0.083618164	
1737115887341	-0.07797241	
1737115887342	-0.053100586	
1737115887343	-0.06477356	
1737115887344	-0.054244995	
1737115887345	-0.002670288	
1737115887346	-0.004348755	
1737115887347	-0.001449585	
1737115887348	0.0017547607	
1737115887349	-0.00831604	
1737115887350	0.00541687	
1737115887351	-0.015335083	
1737115887352	-0.054244995	
1737115887353	-0.07072449	
1737115887354	-0.058059692	
1737115887355	-0.01449585	
1737115887356	0.015182495	
1737115887357	0.03074646	
1737115887358	0.0118255615	
1737115887359	-0.024261475	
1737115887360	0.011291504	
1737115887361	0.08804321	
1737115887362	0.10848999	
1737115887363	0.07720947	
1737115887364	0.05355835	
1737115887365	0.05859375	
1737115887366	0.07354736	
1737115887367	0.09689331	
1737115887368	0.10940552	
1737115887369	0.05279541	
1737115887370	0.013580322	
1737115887371	0.049743652	
1737115887372	0.05126953	
1737115887373	0.028915405	
1737115887374	0.053634644	
1737115887375	0.08895874	
1737115887376	0.018234253	
1737115887377	-0.10986328	
1737115887378	-0.15892029	
1737115887379	-0.19302368	
1737115887380	-0.20439148	
1737115887381	-0.16082764	
1737115887382	-0.094451904	
1737115887383	-0.00579834	
1737115887384	-0.01411438	
1737115887385	-0.08956909	
1737115887386	-0.100631714	
1737115887387	-0.07675171	
1737115887388	-0.07408142	
1737115887389	-0.041732788	
1737115887390	0.020751953	
1737115887391	0.102386475	
1737115887392	0.15991211	
1737115887393	0.10536194	
1737115887394	0.05935669	
1737115887395	0.06790161	
1737115887396	0.018081665	
1737115887397	-0.043792725	
1737115887398	-0.020599365	
1737115887399	0.0064086914	
1737115887400	-0.005569458	
1737115887401	0.03425598	
1737115887402	0.045318604	
1737115887403	0.021209717	
1737115887404	0.0034332275	
1737115887405	-0.0019836426	
1737115887406	0.094833374	
1737115887407	0.17677307	
1737115887408	0.16517639	
1737115887409	0.14015198	
1737115887410	0.12619019	
1737115887411	0.10650635	
1737115887412	0.0051116943	
1737115887413	-0.077056885	
1737115887414	-0.13519287	
1737115887415	-0.18157959	
1737115887416	-0.1222229	
1737115887417	-0.08857727	
1737115887418	-0.09010315	
1737115887419	-0.03326416	
1737115887420	0.0048828125	
1737115887421	-0.037384033	
1737115887422	-0.06561279	
1737115887423	-0.015716553	
1737115887424	0.026168823	
1737115887425	0.07858276	
1737115887426	0.110321045	
1737115887427	0.03501892	
1737115887428	-0.0491333	
1737115887429	-0.08781433	
1737115887430	-0.07354736	
1737115887431	-0.051574707	
1737115887432	-0.09819031	
1737115887433	-0.13290405	
1737115887434	-0.10246277	
1737115887435	-0.038146973	
1737115887436	-9.1552734E-4	
1737115887437	0.014572144	
1737115887438	0.051498413	
1737115887439	0.12008667	
1737115887440	0.19042969	
1737115887441	0.14961243	
1737115887442	0.024642944	
1737115887443	-0.06263733	
1737115887444	-0.06187439	
1737115887445	-0.044708252	
1737115887446	-0.062942505	
1737115887447	-0.05836487	
1737115887448	-0.025634766	
1737115887449	0.00869751	
1737115887450	-0.0024414062	
1737115887451	-0.028381348	
1737115887452	-0.020980835	
1737115887453	0.0289917	
1737115887454	0.067977905	
1737115887455	0.04272461	
1737115887456	0.030670166	
1737115887457	0.074539185	
1737115887458	0.10726929	
1737115887459	0.06637573	
1737115887460	0.022735596	
1737115887461	0.021514893	
1737115887462	-0.0019073486	
1737115887463	-0.015182495	
1737115887464	-0.016784668	
1737115887465	-0.055007935	
1737115887466	-0.07728577	
1737115887467	-0.048446655	
1737115887468	-0.007095337	
1737115887469	0.010299683	
1737115887470	0.025253296	
1737115887471	0.044326782	
1737115887472	0.07835388	
1737115887473	0.111694336	
1737115887474	0.07713318	
1737115887475	0.013427734	
1737115887476	-0.009841919	
1737115887477	-0.013656616	
1737115887478	-0.046157837	
1737115887479	-0.07019043	
1737115887480	-0.05821228	
1737115887481	-0.038375854	
1737115887482	-0.015411377	
1737115887483	-0.013656616	
1737115887484	-0.017089844	
1737115887485	-0.0063323975	
1737115887486	9.1552734E-4	
1737115887487	0.012054443	
1737115887488	0.01411438	
1737115887489	-0.0032043457	
1737115887490	-0.014877319	
1737115887491	-0.0074768066	
1737115887492	-0.013427734	
1737115887493	-0.033416748	
1737115887494	-0.018005371	
1737115887495	0.0035095215	
1737115887496	0.01991272	
1737115887497	0.037612915	
1737115887498	0.0038909912	
1737115887499	-0.037384033	
1737115887500	-0.014266968	
1737115887501	5.340576E-4	
1737115887502	-0.026779175	
1737115887503	-0.036087036	
1737115887504	-0.03517151	
1737115887505	-0.03173828	
1737115887506	-0.034179688	
1737115887507	-0.044021606	
1737115887508	-0.038375854	
1737115887509	-0.030441284	
1737115887510	-0.022354126	
1737115887511	-0.0012969971	
1737115887512	0.017852783	
1737115887513	0.025558472	
1737115887514	0.025482178	
1737115887515	0.024261475	
1737115887516	0.022583008	
1737115887517	0.02319336	
1737115887518	0.03211975	
1737115887519	0.041122437	
1737115887520	0.040130615	
1737115887521	0.036010742	
1737115887522	0.03967285	
1737115887523	0.032806396	
1737115887524	0.016708374	
1737115887525	0.01335144	
1737115887526	0.019226074	
1737115887527	0.01159668	
1737115887528	-0.007019043	
1737115887529	-0.0045776367	
1737115887530	-0.0064086914	
1737115887531	-0.01876831	
1737115887532	-0.013656616	
1737115887533	0.0049591064	
1737115887534	0.013656616	
1737115887535	0.0046539307	
1737115887536	2.2888184E-4	
1737115887537	0.0061035156	
1737115887538	0.013809204	
1737115887539	0.0024414062	
1737115887540	-0.021591187	
1737115887541	-0.037460327	
1737115887542	-0.039749146	
1737115887543	-0.015335083	
1737115887544	6.866455E-4	
1737115887545	0.013580322	
1737115887546	0.03211975	
1737115887547	0.04486084	
1737115887548	0.049591064	
1737115887549	0.02029419	
1737115887550	0.0033569336	
1737115887551	0.0060272217	
1737115887552	-0.006866455	
1737115887553	-0.030441284	
1737115887554	-0.040130615	
1737115887555	-0.02960205	
1737115887556	-0.025405884	
1737115887557	-0.021896362	
1737115887558	-0.026168823	
1737115887559	-0.03593445	
1737115887560	-0.028839111	
1737115887561	-0.029754639	
1737115887562	-0.037002563	
1737115887563	-0.0119018555	
1737115887564	0.0	
1737115887565	-0.012283325	
1737115887566	-0.0074768066	
1737115887567	-0.009613037	
1737115887568	-0.002670288	
1737115887569	0.010070801	
1737115887570	0.011291504	
1737115887571	0.014572144	
1737115887572	0.014190674	
1737115887573	0.019302368	
1737115887574	0.01449585	
1737115887575	0.015563965	
1737115887576	0.030822754	
1737115887577	0.027389526	
1737115887578	0.026931763	
1737115887579	0.028839111	
1737115887580	0.026321411	
1737115887581	0.019073486	
