# OpenSignals Text File Format
# {"00:80:E1:26:A1:B0":{"sensor":["EMG"],"device name":"00:80:E1:26:A1:B0","column":["timestamp","EMG"],"sync interval":2,"time":"10:11:41","comments":"","keywords":"","device connection":"BLE00:80:E1:26:A1:B0","channels":[0],"date":"2025-01-17","mode":0,"digital IO":[],"firmware version":259,"device":"musclebanplux","position":0,"sampling rate":1000,"label":["EMG"],"resolution":[16],"special":[{}],"sleeve color":["UNKNOWN"]}}
# EndOfHeader
1737105102448	0.010070801	
1737105102449	0.0118255615	
1737105102450	0.010223389	
1737105102451	0.0051879883	
1737105102452	0.006866455	
1737105102453	0.0047302246	
1737105102454	-0.0023651123	
1737105102455	-0.0077819824	
1737105102456	-0.0063323975	
1737105102457	-0.0076293945	
1737105102458	-0.014419556	
1737105102459	-0.005874634	
1737105102460	0.0062561035	
1737105102461	0.0048828125	
1737105102462	0.00541687	
1737105102463	0.0023651123	
1737105102464	-0.007019043	
1737105102465	-0.011749268	
1737105102466	-0.018310547	
1737105102467	-0.017242432	
1737105102468	-0.018310547	
1737105102469	-0.023651123	
1737105102470	-0.001373291	
1737105102471	0.012664795	
1737105102472	0.008010864	
1737105102473	0.012664795	
1737105102474	0.014266968	
1737105102475	0.02029419	
1737105102476	0.018005371	
1737105102477	0.0061798096	
1737105102478	0.008087158	
1737105102479	0.008239746	
1737105102480	0.002822876	
1737105102481	0.0016021729	
1737105102482	0.0012969971	
1737105102483	0.0034332275	
1737105102484	5.340576E-4	
1737105102485	-0.007019043	
1737105102486	-0.0025939941	
1737105102487	0.0020599365	
1737105102488	0.0038909912	
1737105102489	0.0032043457	
1737105102490	-0.004272461	
1737105102491	-0.012969971	
1737105102492	-0.027694702	
1737105102493	-0.034866333	
1737105102494	-0.019302368	
1737105102495	1.5258789E-4	
1737105102496	0.0048828125	
1737105102497	0.0074768066	
1737105102498	0.015563965	
1737105102499	0.016555786	
1737105102500	0.00869751	
1737105102501	0.0032043457	
1737105102502	0.0023651123	
1737105102503	-0.001449585	
1737105102504	-0.00579834	
1737105102505	-0.004272461	
1737105102506	0.0017547607	
1737105102507	0.0038146973	
1737105102508	0.005722046	
1737105102509	9.918213E-4	
1737105102510	-0.0031280518	
1737105102511	0.0035858154	
1737105102512	3.0517578E-4	
1737105102513	0.003967285	
1737105102514	0.009460449	
1737105102515	0.0037384033	
1737105102516	0.0031280518	
1737105102517	0.0	
1737105102518	-0.0029754639	
1737105102519	-0.009460449	
1737105102520	-0.009689331	
1737105102521	0.0018310547	
1737105102522	0.0032806396	
1737105102523	-0.0011444092	
1737105102524	-0.004272461	
1737105102525	-0.004501343	
1737105102526	-0.0038146973	
1737105102527	-0.0033569336	
1737105102528	0.0021362305	
1737105102529	0.0019073486	
1737105102530	-0.0015258789	
1737105102531	-4.5776367E-4	
1737105102532	0.003967285	
1737105102533	0.0037384033	
1737105102534	-0.0038146973	
1737105102535	0.0012969971	
1737105102536	0.010070801	
1737105102537	9.1552734E-4	
1737105102538	-0.005645752	
1737105102539	-0.005264282	
1737105102540	-0.008392334	
1737105102541	-0.002746582	
1737105102542	0.005645752	
1737105102543	0.005264282	
1737105102544	9.1552734E-4	
1737105102545	5.340576E-4	
1737105102546	-0.0033569336	
1737105102547	-0.002746582	
1737105102548	0.0018310547	
1737105102549	-0.0025939941	
1737105102550	-9.918213E-4	
1737105102551	-3.8146973E-4	
1737105102552	3.8146973E-4	
1737105102553	-5.340576E-4	
1737105102554	-0.0020599365	
1737105102555	0.005340576	
1737105102556	0.0020599365	
1737105102557	-7.6293945E-5	
1737105102558	-6.1035156E-4	
1737105102559	-0.005645752	
1737105102560	0.0012969971	
1737105102561	0.005264282	
1737105102562	0.008163452	
1737105102563	0.011749268	
1737105102564	0.0023651123	
1737105102565	-0.004348755	
1737105102566	-8.392334E-4	
1737105102567	0.0	
1737105102568	-7.6293945E-5	
1737105102569	0.01083374	
1737105102570	0.010757446	
1737105102571	-0.0076293945	
1737105102572	-0.016708374	
1737105102573	-0.012741089	
1737105102574	-0.009460449	
1737105102575	-0.014877319	
1737105102576	-0.01701355	
1737105102577	-0.004196167	
1737105102578	0.00793457	
1737105102579	0.007095337	
1737105102580	0.0059509277	
1737105102581	0.0033569336	
1737105102582	3.8146973E-4	
1737105102583	0.0031280518	
1737105102584	0.0061035156	
1737105102585	0.012207031	
1737105102586	0.010681152	
1737105102587	0.007171631	
1737105102588	0.007858276	
1737105102589	0.0022125244	
1737105102590	2.2888184E-4	
1737105102591	-0.0011444092	
1737105102592	-0.0050354004	
1737105102593	-0.005569458	
1737105102594	-0.006942749	
1737105102595	-0.0023651123	
1737105102596	0.0035095215	
1737105102597	-0.0032043457	
1737105102598	-0.010986328	
1737105102599	-0.0065612793	
1737105102600	-0.0033569336	
1737105102601	-0.0066375732	
1737105102602	-0.0029754639	
1737105102603	-7.6293945E-5	
1737105102604	-0.0024414062	
1737105102605	0.002822876	
1737105102606	0.008621216	
1737105102607	0.009613037	
1737105102608	0.0064849854	
1737105102609	0.0025177002	
1737105102610	3.8146973E-4	
1737105102611	-0.0062561035	
1737105102612	-0.0033569336	
1737105102613	-0.004043579	
1737105102614	-0.012741089	
1737105102615	-0.01121521	
1737105102616	-0.0032043457	
1737105102617	0.0060272217	
1737105102618	0.01121521	
1737105102619	0.012130737	
1737105102620	0.0059509277	
1737105102621	0.004348755	
1737105102622	0.007019043	
1737105102623	0.0016021729	
1737105102624	-0.004043579	
1737105102625	-9.1552734E-4	
1737105102626	0.0061035156	
1737105102627	0.008163452	
1737105102628	0.007171631	
1737105102629	2.2888184E-4	
1737105102630	-0.005874634	
1737105102631	-0.009155273	
1737105102632	-0.0064849854	
1737105102633	-5.340576E-4	
1737105102634	-0.009613037	
1737105102635	-0.010299683	
1737105102636	-0.00793457	
1737105102637	-0.008468628	
1737105102638	0.0016021729	
1737105102639	-0.004501343	
1737105102640	-0.007095337	
1737105102641	0.0051116943	
1737105102642	0.014038086	
1737105102643	0.023956299	
1737105102644	0.0118255615	
1737105102645	-0.007095337	
1737105102646	-0.00869751	
1737105102647	-0.009155273	
1737105102648	-0.0064849854	
1737105102649	-0.0019073486	
1737105102650	-9.918213E-4	
1737105102651	0.0018310547	
1737105102652	0.0066375732	
1737105102653	0.006942749	
1737105102654	0.008544922	
1737105102655	0.01159668	
1737105102656	0.007247925	
1737105102657	0.002746582	
1737105102658	-0.0038909912	
1737105102659	-0.011672974	
1737105102660	-0.009536743	
1737105102661	-0.00289917	
1737105102662	0.0	
1737105102663	-0.005493164	
1737105102664	-0.018081665	
1737105102665	-0.022506714	
1737105102666	-0.009689331	
1737105102667	3.0517578E-4	
1737105102668	0.007095337	
1737105102669	0.01701355	
1737105102670	0.0074005127	
1737105102671	-0.0012969971	
1737105102672	0.0060272217	
1737105102673	0.010528564	
1737105102674	0.013046265	
1737105102675	0.006866455	
1737105102676	-0.001449585	
1737105102677	6.1035156E-4	
1737105102678	-0.0022888184	
1737105102679	-0.007858276	
1737105102680	-0.004272461	
1737105102681	0.004348755	
1737105102682	0.004119873	
1737105102683	-0.003967285	
1737105102684	1.5258789E-4	
1737105102685	0.002822876	
1737105102686	6.866455E-4	
1737105102687	0.0045776367	
1737105102688	0.004196167	
1737105102689	0.0015258789	
1737105102690	0.0012207031	
1737105102691	0.0024414062	
1737105102692	-0.0047302246	
1737105102693	-0.013427734	
1737105102694	-0.0060272217	
1737105102695	-9.1552734E-4	
1737105102696	0.0012969971	
1737105102697	-4.5776367E-4	
1737105102698	-0.012359619	
1737105102699	-0.005493164	
1737105102700	0.0029754639	
1737105102701	-0.007171631	
1737105102702	0.0011444092	
1737105102703	0.015106201	
1737105102704	0.012741089	
1737105102705	0.00869751	
1737105102706	-7.6293945E-5	
1737105102707	-0.00289917	
1737105102708	-0.0021362305	
1737105102709	-0.0035858154	
1737105102710	9.1552734E-4	
1737105102711	0.004348755	
1737105102712	0.008926392	
1737105102713	0.017852783	
1737105102714	0.01411438	
1737105102715	-0.017471313	
1737105102716	-0.047073364	
1737105102717	-0.05203247	
1737105102718	-0.03768921	
1737105102719	-0.0034332275	
1737105102720	0.010223389	
1737105102721	-0.0012969971	
1737105102722	0.002670288	
1737105102723	0.010147095	
1737105102724	0.017623901	
1737105102725	0.022277832	
1737105102726	0.018539429	
1737105102727	0.021133423	
1737105102728	0.016708374	
1737105102729	0.017929077	
1737105102730	0.019378662	
1737105102731	0.008621216	
1737105102732	0.008926392	
1737105102733	0.0090789795	
1737105102734	0.0047302246	
1737105102735	-0.004043579	
1737105102736	-0.010299683	
1737105102737	-0.0051116943	
1737105102738	-0.005874634	
1737105102739	-0.006942749	
1737105102740	-0.008163452	
1737105102741	-0.01411438	
1737105102742	-0.01914978	
1737105102743	-0.01991272	
1737105102744	-0.02319336	
1737105102745	-0.025939941	
1737105102746	-0.0050354004	
1737105102747	0.009765625	
1737105102748	0.002746582	
1737105102749	0.00579834	
1737105102750	0.0060272217	
1737105102751	-0.0025939941	
1737105102752	-0.005722046	
1737105102753	0.0022888184	
1737105102754	0.012054443	
1737105102755	0.012588501	
1737105102756	0.0118255615	
1737105102757	0.0045776367	
1737105102758	-0.0034332275	
1737105102759	9.918213E-4	
1737105102760	0.004043579	
1737105102761	0.004196167	
1737105102762	0.0059509277	
1737105102763	0.006942749	
1737105102764	0.0060272217	
1737105102765	0.0022888184	
1737105102766	-5.340576E-4	
1737105102767	-0.006866455	
1737105102768	-0.009460449	
1737105102769	0.0021362305	
1737105102770	0.0025939941	
1737105102771	-0.0046539307	
1737105102772	-0.004272461	
1737105102773	-0.0066375732	
1737105102774	-3.0517578E-4	
1737105102775	0.0038909912	
1737105102776	-7.6293945E-4	
1737105102777	0.0034332275	
1737105102778	0.004119873	
1737105102779	0.0064086914	
1737105102780	0.0062561035	
1737105102781	-7.6293945E-5	
1737105102782	0.002670288	
1737105102783	0.0016021729	
1737105102784	0.0011444092	
1737105102785	-9.1552734E-4	
1737105102786	-0.004196167	
1737105102787	-9.918213E-4	
1737105102788	-0.004272461	
1737105102789	-0.0061798096	
1737105102790	-0.0073242188	
1737105102791	-0.009460449	
1737105102792	-0.00793457	
1737105102793	-0.007095337	
1737105102794	-0.007171631	
1737105102795	-0.004348755	
1737105102796	-0.0010681152	
1737105102797	-7.6293945E-4	
1737105102798	8.392334E-4	
1737105102799	0.0025939941	
1737105102800	0.0049591064	
1737105102801	0.0038909912	
1737105102802	0.0022888184	
1737105102803	8.392334E-4	
1737105102804	-0.0037384033	
1737105102805	9.1552734E-4	
1737105102806	-0.0016021729	
1737105102807	-0.0038146973	
1737105102808	0.005264282	
1737105102809	0.0038909912	
1737105102810	0.00579834	
1737105102811	0.009536743	
1737105102812	0.0049591064	
1737105102813	0.0017547607	
1737105102814	-6.866455E-4	
1737105102815	3.8146973E-4	
1737105102816	0.002822876	
1737105102817	-6.866455E-4	
1737105102818	-0.004501343	
1737105102819	3.8146973E-4	
1737105102820	0.0048828125	
1737105102821	0.005569458	
1737105102822	0.005645752	
1737105102823	0.0034332275	
1737105102824	0.0038146973	
1737105102825	-6.866455E-4	
1737105102826	-0.010375977	
1737105102827	-0.009918213	
1737105102828	-0.0063323975	
1737105102829	-0.004196167	
1737105102830	0.0020599365	
1737105102831	0.0018310547	
1737105102832	0.0016784668	
1737105102833	0.008544922	
1737105102834	0.007019043	
1737105102835	0.0025177002	
1737105102836	-3.0517578E-4	
1737105102837	-0.005569458	
1737105102838	-0.008468628	
1737105102839	-0.0090789795	
1737105102840	-0.009231567	
1737105102841	-0.008544922	
1737105102842	-0.0012969971	
1737105102843	0.00541687	
1737105102844	0.004425049	
1737105102845	0.0076293945	
1737105102846	0.008926392	
1737105102847	0.008850098	
1737105102848	0.008850098	
1737105102849	0.0032043457	
1737105102850	7.6293945E-4	
1737105102851	-0.0012969971	
1737105102852	-0.0018310547	
1737105102853	-0.0038146973	
1737105102854	-0.009765625	
1737105102855	-0.007019043	
1737105102856	-0.005722046	
1737105102857	-0.00579834	
1737105102858	-0.0023651123	
1737105102859	0.0020599365	
1737105102860	0.010375977	
1737105102861	0.008239746	
1737105102862	0.0012207031	
1737105102863	-0.0025939941	
1737105102864	-0.006790161	
1737105102865	0.0022125244	
1737105102866	0.010986328	
1737105102867	2.2888184E-4	
1737105102868	-0.008239746	
1737105102869	-0.006942749	
1737105102870	-0.005493164	
1737105102871	-0.0063323975	
1737105102872	-0.004425049	
1737105102873	-0.0035095215	
1737105102874	-0.004348755	
1737105102875	0.0017547607	
1737105102876	0.005874634	
1737105102877	0.0051116943	
1737105102878	0.004272461	
1737105102879	0.0060272217	
1737105102880	0.010070801	
1737105102881	0.00831604	
1737105102882	9.1552734E-4	
1737105102883	-0.0074005127	
1737105102884	-0.00793457	
1737105102885	0.0038146973	
1737105102886	0.006942749	
1737105102887	0.0022125244	
1737105102888	0.0031280518	
1737105102889	-0.0023651123	
1737105102890	-0.0037384033	
1737105102891	-8.392334E-4	
1737105102892	-0.00541687	
1737105102893	0.0010681152	
1737105102894	0.00579834	
1737105102895	-0.0012969971	
1737105102896	-0.0022888184	
1737105102897	-0.0034332275	
1737105102898	1.5258789E-4	
1737105102899	-0.00289917	
1737105102900	-0.0045776367	
1737105102901	0.0032806396	
1737105102902	-0.0047302246	
1737105102903	-0.0035095215	
1737105102904	-0.0012207031	
1737105102905	0.0018310547	
1737105102906	0.0065612793	
1737105102907	-0.0022888184	
1737105102908	0.0	
1737105102909	-8.392334E-4	
1737105102910	-0.00289917	
1737105102911	0.0051116943	
1737105102912	0.0022125244	
1737105102913	0.0036621094	
1737105102914	0.007247925	
1737105102915	0.0076293945	
1737105102916	0.009994507	
1737105102917	9.1552734E-4	
1737105102918	6.866455E-4	
1737105102919	0.0061798096	
1737105102920	0.0017547607	
1737105102921	-1.5258789E-4	
1737105102922	-0.002670288	
1737105102923	-0.0047302246	
1737105102924	0.005264282	
1737105102925	0.002746582	
1737105102926	0.0	
1737105102927	0.0019836426	
1737105102928	-0.0047302246	
1737105102929	-0.004119873	
1737105102930	-0.002670288	
1737105102931	-0.0076293945	
1737105102932	-0.004196167	
1737105102933	3.8146973E-4	
1737105102934	-0.008392334	
1737105102935	-0.0025177002	
1737105102936	0.00289917	
1737105102937	0.004272461	
1737105102938	7.6293945E-5	
1737105102939	-0.0073242188	
1737105102940	-0.0045776367	
1737105102941	-0.0047302246	
1737105102942	0.0034332275	
1737105102943	0.0023651123	
1737105102944	-0.00289917	
1737105102945	0.0016021729	
1737105102946	-0.008087158	
1737105102947	-0.004043579	
1737105102948	-0.0034332275	
1737105102949	-0.0022888184	
1737105102950	-0.0016021729	
1737105102951	-6.1035156E-4	
1737105102952	0.0023651123	
1737105102953	-0.005645752	
1737105102954	-0.0104522705	
1737105102955	-0.0030517578	
1737105102956	-0.0012207031	
1737105102957	-0.0012207031	
1737105102958	0.001373291	
1737105102959	0.008850098	
1737105102960	0.009307861	
1737105102961	0.008010864	
1737105102962	0.005874634	
1737105102963	0.0011444092	
1737105102964	-3.8146973E-4	
1737105102965	7.6293945E-5	
1737105102966	0.00831604	
1737105102967	0.008544922	
1737105102968	0.006866455	
1737105102969	0.002670288	
1737105102970	0.008468628	
1737105102971	0.009841919	
1737105102972	0.0012207031	
1737105102973	0.0030517578	
1737105102974	0.005874634	
1737105102975	0.01083374	
1737105102976	0.01121521	
1737105102977	0.0074005127	
1737105102978	-7.6293945E-4	
1737105102979	-0.0076293945	
1737105102980	-0.005493164	
1737105102981	-0.009765625	
1737105102982	-0.0062561035	
1737105102983	-0.0066375732	
1737105102984	-0.005569458	
1737105102985	-0.0032806396	
1737105102986	-0.004043579	
1737105102987	-0.0012969971	
1737105102988	-0.008468628	
1737105102989	-0.0033569336	
1737105102990	0.0025177002	
1737105102991	-0.0029754639	
1737105102992	-0.0050354004	
1737105102993	-0.0051116943	
1737105102994	-0.005874634	
1737105102995	4.5776367E-4	
1737105102996	-0.002670288	
1737105102997	-2.2888184E-4	
1737105102998	-0.0022125244	
1737105102999	-0.0016021729	
1737105103000	0.007095337	
1737105103001	0.0022888184	
1737105103002	-0.0035858154	
1737105103003	0.0	
1737105103004	-9.918213E-4	
1737105103005	-0.0059509277	
1737105103006	0.004196167	
1737105103007	9.918213E-4	
1737105103008	-6.1035156E-4	
1737105103009	0.007247925	
1737105103010	0.0018310547	
1737105103011	0.004348755	
1737105103012	0.0077819824	
1737105103013	0.00541687	
1737105103014	0.008239746	
1737105103015	0.0025177002	
1737105103016	0.0045776367	
1737105103017	0.010604858	
1737105103018	0.0035095215	
1737105103019	0.00289917	
1737105103020	0.0063323975	
1737105103021	6.1035156E-4	
1737105103022	-0.0022888184	
1737105103023	-0.0024414062	
1737105103024	-0.0022125244	
1737105103025	-0.0119018555	
1737105103026	-0.007095337	
1737105103027	-0.0018310547	
1737105103028	-0.010299683	
1737105103029	-0.0038909912	
1737105103030	-0.0065612793	
1737105103031	-3.0517578E-4	
1737105103032	-2.2888184E-4	
1737105103033	0.0012207031	
1737105103034	0.008239746	
1737105103035	-0.0016021729	
1737105103036	0.008087158	
1737105103037	-0.002670288	
1737105103038	-0.009002686	
1737105103039	0.0032043457	
1737105103040	-0.0074768066	
1737105103041	-0.0118255615	
1737105103042	-0.0064849854	
1737105103043	-0.0022888184	
1737105103044	0.0025939941	
1737105103045	0.001373291	
1737105103046	0.0030517578	
1737105103047	0.0037384033	
1737105103048	0.005645752	
1737105103049	0.004272461	
1737105103050	-0.001373291	
1737105103051	0.007171631	
1737105103052	0.0019073486	
1737105103053	0.0	
1737105103054	0.005874634	
1737105103055	0.0045776367	
1737105103056	0.006942749	
1737105103057	0.0032043457	
1737105103058	-0.004348755	
1737105103059	-0.0034332275	
1737105103060	-0.0016021729	
1737105103061	0.0031280518	
1737105103062	-0.0016021729	
1737105103063	-0.002746582	
1737105103064	0.001373291	
1737105103065	7.6293945E-5	
1737105103066	0.0012207031	
1737105103067	0.0023651123	
1737105103068	0.004425049	
1737105103069	0.0035858154	
1737105103070	2.2888184E-4	
1737105103071	-0.004043579	
1737105103072	-2.2888184E-4	
1737105103073	0.0023651123	
1737105103074	0.0017547607	
1737105103075	-0.001373291	
1737105103076	-0.0025939941	
1737105103077	0.0016021729	
1737105103078	-0.008087158	
1737105103079	-0.005874634	
1737105103080	0.0023651123	
1737105103081	0.0022125244	
1737105103082	0.0020599365	
1737105103083	-0.0035095215	
1737105103084	0.0022888184	
1737105103085	-0.0016021729	
1737105103086	-0.0012207031	
1737105103087	0.010986328	
1737105103088	3.8146973E-4	
1737105103089	0.0031280518	
1737105103090	0.0012207031	
1737105103091	0.0022888184	
1737105103092	0.00289917	
1737105103093	2.2888184E-4	
1737105103094	0.0075531006	
1737105103095	0.0010681152	
1737105103096	-0.0033569336	
1737105103097	0.006942749	
1737105103098	0.005874634	
1737105103099	-0.001449585	
1737105103100	-0.0019073486	
1737105103101	0.0036621094	
1737105103102	0.0059509277	
1737105103103	0.0029754639	
1737105103104	0.002822876	
1737105103105	0.0032806396	
1737105103106	-0.0030517578	
1737105103107	-0.012969971	
1737105103108	-0.009002686	
1737105103109	-0.006790161	
1737105103110	-0.00831604	
1737105103111	0.0010681152	
1737105103112	-0.006790161	
1737105103113	-0.007858276	
1737105103114	-0.0048065186	
1737105103115	-0.00541687	
1737105103116	-0.005340576	
1737105103117	-0.0035095215	
1737105103118	-0.0012207031	
1737105103119	-0.0038909912	
1737105103120	-0.0011444092	
1737105103121	0.005645752	
1737105103122	0.005340576	
1737105103123	0.0	
1737105103124	0.0038909912	
1737105103125	9.918213E-4	
1737105103126	0.0016784668	
1737105103127	0.0066375732	
1737105103128	-0.0012207031	
1737105103129	-9.1552734E-4	
1737105103130	0.007019043	
1737105103131	9.918213E-4	
1737105103132	8.392334E-4	
1737105103133	0.00541687	
1737105103134	0.00289917	
1737105103135	0.001373291	
1737105103136	0.0020599365	
1737105103137	0.0047302246	
1737105103138	0.0031280518	
1737105103139	0.0050354004	
1737105103140	-0.0031280518	
1737105103141	-0.007247925	
1737105103142	0.0022125244	
1737105103143	5.340576E-4	
1737105103144	0.002746582	
1737105103145	0.0012207031	
1737105103146	-0.0061798096	
1737105103147	-7.6293945E-5	
1737105103148	-0.0017547607	
1737105103149	-0.0033569336	
1737105103150	-6.1035156E-4	
1737105103151	9.1552734E-4	
1737105103152	4.5776367E-4	
1737105103153	3.0517578E-4	
1737105103154	0.005340576	
1737105103155	0.0035095215	
1737105103156	0.002822876	
1737105103157	0.0061035156	
1737105103158	-0.0035858154	
1737105103159	-8.392334E-4	
1737105103160	0.0017547607	
1737105103161	-0.004119873	
1737105103162	0.002822876	
1737105103163	0.002822876	
1737105103164	-6.866455E-4	
1737105103165	7.6293945E-5	
1737105103166	-0.005264282	
1737105103167	-0.0036621094	
1737105103168	-0.0025177002	
1737105103169	-9.1552734E-4	
1737105103170	0.0030517578	
1737105103171	0.0035095215	
1737105103172	0.0020599365	
1737105103173	0.0051879883	
1737105103174	0.0048828125	
1737105103175	-0.0011444092	
1737105103176	0.005722046	
1737105103177	0.009765625	
1737105103178	0.009384155	
1737105103179	0.0059509277	
1737105103180	0.0022888184	
1737105103181	0.0016784668	
1737105103182	-0.008087158	
1737105103183	-0.008010864	
1737105103184	-0.0064086914	
1737105103185	-0.016021729	
1737105103186	-0.009002686	
1737105103187	0.0030517578	
1737105103188	0.0037384033	
1737105103189	0.0030517578	
1737105103190	0.0038909912	
1737105103191	-0.0019836426	
1737105103192	-0.004272461	
1737105103193	-5.340576E-4	
1737105103194	-0.0016784668	
1737105103195	-0.0032806396	
1737105103196	-0.0059509277	
1737105103197	0.0	
1737105103198	0.00831604	
1737105103199	0.0011444092	
1737105103200	0.0025177002	
1737105103201	0.002670288	
1737105103202	-0.0050354004	
1737105103203	-0.008621216	
1737105103204	-0.0077819824	
1737105103205	-2.2888184E-4	
1737105103206	0.001373291	
1737105103207	7.6293945E-5	
1737105103208	-0.0021362305	
1737105103209	-0.008850098	
1737105103210	-0.0059509277	
1737105103211	0.0064849854	
1737105103212	0.0030517578	
1737105103213	-0.0051116943	
1737105103214	-0.001449585	
1737105103215	8.392334E-4	
1737105103216	9.918213E-4	
1737105103217	0.0038909912	
1737105103218	0.009765625	
1737105103219	0.004119873	
1737105103220	-0.0019073486	
1737105103221	-0.0010681152	
1737105103222	-0.005340576	
1737105103223	-0.0046539307	
1737105103224	0.00289917	
1737105103225	0.0038146973	
1737105103226	-9.1552734E-4	
1737105103227	0.009231567	
1737105103228	0.008468628	
1737105103229	-0.004501343	
1737105103230	7.6293945E-4	
1737105103231	0.0035095215	
1737105103232	0.0025177002	
1737105103233	6.1035156E-4	
1737105103234	-0.0032043457	
1737105103235	1.5258789E-4	
1737105103236	0.0059509277	
1737105103237	0.011749268	
1737105103238	0.0073242188	
1737105103239	-0.005264282	
1737105103240	-0.0075531006	
1737105103241	-0.0032043457	
1737105103242	-0.0059509277	
1737105103243	-0.004272461	
1737105103244	-0.0022888184	
1737105103245	-0.0031280518	
1737105103246	0.004119873	
1737105103247	0.0023651123	
1737105103248	-0.00793457	
1737105103249	-0.008850098	
1737105103250	-0.006790161	
1737105103251	-0.0045776367	
1737105103252	2.2888184E-4	
1737105103253	0.0029754639	
1737105103254	0.0045776367	
1737105103255	0.007171631	
1737105103256	0.013198853	
1737105103257	0.02243042	
1737105103258	0.02960205	
1737105103259	0.025787354	
1737105103260	0.015335083	
1737105103261	0.015029907	
1737105103262	0.022201538	
1737105103263	0.015716553	
1737105103264	-0.003967285	
1737105103265	-0.009231567	
1737105103266	-0.006790161	
1737105103267	-0.010147095	
1737105103268	-0.0036621094	
1737105103269	0.006713867	
1737105103270	0.00831604	
1737105103271	0.0051879883	
1737105103272	0.001373291	
1737105103273	-0.011138916	
1737105103274	-0.0315094	
1737105103275	-0.041885376	
1737105103276	-0.036087036	
1737105103277	-0.02204895	
1737105103278	-0.010681152	
1737105103279	3.0517578E-4	
1737105103280	0.0046539307	
1737105103281	0.004043579	
1737105103282	-0.0025939941	
1737105103283	-0.0090789795	
1737105103284	-0.0074768066	
1737105103285	-0.015792847	
1737105103286	-0.012893677	
1737105103287	-0.009231567	
1737105103288	-0.0062561035	
1737105103289	0.0036621094	
1737105103290	-0.0024414062	
1737105103291	-0.006866455	
1737105103292	-0.004119873	
1737105103293	-0.0076293945	
1737105103294	-0.0074005127	
1737105103295	-0.008087158	
1737105103296	-0.016021729	
1737105103297	-0.006942749	
1737105103298	0.0011444092	
1737105103299	0.0025939941	
1737105103300	0.0066375732	
1737105103301	-0.0060272217	
1737105103302	0.002822876	
1737105103303	0.0077819824	
1737105103304	0.0025939941	
1737105103305	0.016555786	
1737105103306	0.015716553	
1737105103307	0.026245117	
1737105103308	0.025634766	
1737105103309	0.028305054	
1737105103310	0.038528442	
1737105103311	0.039138794	
1737105103312	0.0390625	
1737105103313	0.034866333	
1737105103314	0.020065308	
1737105103315	0.019607544	
1737105103316	0.015106201	
1737105103317	-0.0020599365	
1737105103318	-0.013580322	
1737105103319	-0.025558472	
1737105103320	-0.019989014	
1737105103321	-0.021743774	
1737105103322	-0.025405884	
1737105103323	-0.016479492	
1737105103324	-0.016174316	
1737105103325	-0.015563965	
1737105103326	-0.010986328	
1737105103327	6.866455E-4	
1737105103328	7.6293945E-4	
1737105103329	-0.002670288	
1737105103330	0.00579834	
1737105103331	0.0059509277	
1737105103332	-3.0517578E-4	
1737105103333	0.004196167	
1737105103334	-0.0065612793	
1737105103335	-0.014266968	
1737105103336	-0.012817383	
1737105103337	-0.01991272	
1737105103338	-0.023422241	
1737105103339	-0.025100708	
1737105103340	-0.009536743	
1737105103341	-0.004043579	
1737105103342	-0.013809204	
1737105103343	-0.007858276	
1737105103344	-0.005493164	
1737105103345	9.1552734E-4	
1737105103346	0.005874634	
1737105103347	9.918213E-4	
1737105103348	0.0048065186	
1737105103349	0.0050354004	
1737105103350	0.015106201	
1737105103351	0.026473999	
1737105103352	0.018081665	
1737105103353	0.024795532	
1737105103354	0.03036499	
1737105103355	0.024414062	
1737105103356	0.035095215	
1737105103357	0.029296875	
1737105103358	0.020904541	
1737105103359	0.0390625	
1737105103360	0.036392212	
1737105103361	0.03326416	
1737105103362	0.037078857	
1737105103363	0.023880005	
1737105103364	0.002670288	
1737105103365	-0.02029419	
1737105103366	-0.02784729	
1737105103367	-0.032806396	
1737105103368	-0.035095215	
1737105103369	-0.032043457	
1737105103370	-0.02998352	
1737105103371	-0.018157959	
1737105103372	-0.021820068	
1737105103373	-0.03593445	
1737105103374	-0.033569336	
1737105103375	-0.033416748	
1737105103376	-0.045928955	
1737105103377	-0.047073364	
1737105103378	-0.027694702	
1737105103379	-0.015716553	
1737105103380	-0.009155273	
1737105103381	-0.0032043457	
1737105103382	-0.008087158	
1737105103383	-0.0118255615	
1737105103384	-0.006790161	
1737105103385	-0.012588501	
1737105103386	-0.010070801	
1737105103387	4.5776367E-4	
1737105103388	-0.0047302246	
1737105103389	-0.012969971	
1737105103390	-0.0062561035	
1737105103391	-0.0038909912	
1737105103392	0.002822876	
1737105103393	0.011444092	
1737105103394	0.022583008	
1737105103395	0.022735596	
1737105103396	0.03250122	
1737105103397	0.036087036	
1737105103398	0.029449463	
1737105103399	0.036468506	
1737105103400	0.03753662	
1737105103401	0.030059814	
1737105103402	0.035324097	
1737105103403	0.035858154	
1737105103404	0.03250122	
1737105103405	0.045394897	
1737105103406	0.033798218	
1737105103407	0.020217896	
1737105103408	-0.0018310547	
1737105103409	-0.00869751	
1737105103410	-0.010910034	
1737105103411	-0.006942749	
1737105103412	-0.0063323975	
1737105103413	-0.0077819824	
1737105103414	-0.0038146973	
1737105103415	-0.005569458	
1737105103416	-0.011062622	
1737105103417	-0.011444092	
1737105103418	-0.010299683	
1737105103419	-0.017089844	
1737105103420	-0.020217896	
1737105103421	-0.015182495	
1737105103422	-0.0023651123	
1737105103423	-0.012741089	
1737105103424	-0.011062622	
1737105103425	0.005264282	
1737105103426	0.001449585	
1737105103427	-0.0038146973	
1737105103428	-8.392334E-4	
1737105103429	-9.918213E-4	
1737105103430	-0.008621216	
1737105103431	-0.008926392	
1737105103432	-0.016021729	
1737105103433	-0.008544922	
1737105103434	-3.8146973E-4	
1737105103435	-0.0065612793	
1737105103436	-0.0019836426	
1737105103437	-0.009994507	
1737105103438	-0.013885498	
1737105103439	0.0018310547	
1737105103440	0.009994507	
1737105103441	0.012283325	
1737105103442	0.0059509277	
1737105103443	-0.004043579	
1737105103444	-0.012207031	
1737105103445	-0.010147095	
1737105103446	0.0049591064	
1737105103447	0.0035095215	
1737105103448	6.866455E-4	
1737105103449	0.0063323975	
1737105103450	0.004425049	
1737105103451	-0.0032043457	
1737105103452	-0.0035095215	
1737105103453	-0.0035858154	
1737105103454	-0.00869751	
1737105103455	-0.01838684	
1737105103456	-0.0077056885	
1737105103457	0.004272461	
1737105103458	8.392334E-4	
1737105103459	-0.0022888184	
1737105103460	0.0020599365	
1737105103461	0.010299683	
1737105103462	0.008621216	
1737105103463	-0.009460449	
1737105103464	-0.005569458	
1737105103465	0.011520386	
1737105103466	0.006790161	
1737105103467	0.010910034	
1737105103468	0.012969971	
1737105103469	0.009841919	
1737105103470	0.01586914	
1737105103471	0.009460449	
1737105103472	0.0104522705	
1737105103473	0.012588501	
1737105103474	0.014724731	
1737105103475	0.011444092	
1737105103476	-0.0074768066	
1737105103477	-0.017242432	
1737105103478	-0.01083374	
1737105103479	-0.0025177002	
1737105103480	-0.008163452	
1737105103481	3.0517578E-4	
1737105103482	0.0024414062	
1737105103483	-0.0035095215	
1737105103484	3.8146973E-4	
1737105103485	0.007858276	
1737105103486	0.013046265	
1737105103487	0.007095337	
1737105103488	0.009460449	
1737105103489	-6.866455E-4	
1737105103490	-0.022888184	
1737105103491	-0.034179688	
1737105103492	-0.031051636	
1737105103493	-0.02319336	
1737105103494	-0.024490356	
1737105103495	0.0	
1737105103496	0.002822876	
1737105103497	0.003967285	
1737105103498	0.028533936	
1737105103499	0.026550293	
1737105103500	0.013656616	
1737105103501	0.017166138	
1737105103502	0.016479492	
1737105103503	0.00579834	
1737105103504	0.010223389	
1737105103505	0.0074768066	
1737105103506	9.1552734E-4	
1737105103507	0.006942749	
1737105103508	0.0045776367	
1737105103509	-0.0016784668	
1737105103510	0.0036621094	
1737105103511	0.0049591064	
1737105103512	-2.2888184E-4	
1737105103513	-0.004043579	
1737105103514	-0.005340576	
1737105103515	-0.0062561035	
1737105103516	-0.0019836426	
1737105103517	-6.866455E-4	
1737105103518	-0.009307861	
1737105103519	-0.009460449	
1737105103520	-0.0033569336	
1737105103521	-0.008239746	
1737105103522	-0.011291504	
1737105103523	-0.00289917	
1737105103524	0.0033569336	
1737105103525	0.0025177002	
1737105103526	-0.002746582	
1737105103527	-0.0050354004	
1737105103528	-5.340576E-4	
1737105103529	-0.0020599365	
1737105103530	0.0035858154	
1737105103531	-0.0038909912	
1737105103532	-0.0118255615	
1737105103533	0.0037384033	
1737105103534	-0.0012969971	
1737105103535	-0.010986328	
1737105103536	-0.014801025	
1737105103537	-0.029907227	
1737105103538	-0.03364563	
1737105103539	-0.016860962	
1737105103540	0.012054443	
1737105103541	0.023956299	
1737105103542	0.010375977	
1737105103543	0.0146484375	
1737105103544	0.026626587	
1737105103545	0.03387451	
1737105103546	0.034942627	
1737105103547	0.011749268	
1737105103548	-0.0022125244	
1737105103549	0.005722046	
1737105103550	-0.004119873	
1737105103551	-0.016174316	
1737105103552	-0.005264282	
1737105103553	-0.005569458	
1737105103554	-0.0060272217	
1737105103555	0.004119873	
1737105103556	0.0048828125	
1737105103557	0.018157959	
1737105103558	0.021743774	
1737105103559	0.013046265	
1737105103560	0.011062622	
1737105103561	-0.005569458	
1737105103562	-0.024414062	
1737105103563	-0.026245117	
1737105103564	-0.013809204	
1737105103565	-0.024337769	
1737105103566	-0.039215088	
1737105103567	-0.0076293945	
1737105103568	0.006942749	
1737105103569	0.0090789795	
1737105103570	0.028686523	
1737105103571	0.028152466	
1737105103572	0.014801025	
1737105103573	0.008392334	
1737105103574	0.015106201	
1737105103575	0.014801025	
1737105103576	0.0020599365	
1737105103577	-0.011291504	
1737105103578	-0.028915405	
1737105103579	-0.050354004	
1737105103580	-0.038146973	
1737105103581	0.01083374	
1737105103582	0.029067993	
1737105103583	0.009155273	
1737105103584	0.00831604	
1737105103585	0.018692017	
1737105103586	0.018920898	
1737105103587	0.025863647	
1737105103588	0.019378662	
1737105103589	-0.0051116943	
1737105103590	-0.01449585	
1737105103591	-0.016555786	
1737105103592	-0.012207031	
1737105103593	-0.0132751465	
1737105103594	-0.029220581	
1737105103595	-0.01876831	
1737105103596	-0.009841919	
1737105103597	-0.0036621094	
1737105103598	0.015182495	
1737105103599	0.014801025	
1737105103600	0.014038086	
1737105103601	0.009994507	
1737105103602	0.01586914	
1737105103603	0.018310547	
1737105103604	0.001449585	
1737105103605	0.0051879883	
1737105103606	0.022735596	
1737105103607	0.008010864	
1737105103608	-0.013656616	
1737105103609	-0.008468628	
1737105103610	-0.005493164	
1737105103611	-0.01838684	
1737105103612	-0.03845215	
1737105103613	-0.070495605	
1737105103614	-0.0693512	
1737105103615	-0.0019073486	
1737105103616	0.050811768	
1737105103617	0.038757324	
1737105103618	0.02571106	
1737105103619	0.020751953	
1737105103620	-0.0016784668	
1737105103621	-0.004272461	
1737105103622	0.020828247	
1737105103623	0.039367676	
1737105103624	0.020599365	
1737105103625	-0.01373291	
1737105103626	-0.030136108	
1737105103627	-0.009460449	
1737105103628	0.031280518	
1737105103629	0.045394897	
1737105103630	0.032577515	
1737105103631	0.020446777	
1737105103632	0.020446777	
1737105103633	0.008239746	
1737105103634	-0.025253296	
1737105103635	-0.041656494	
1737105103636	-0.04333496	
1737105103637	-0.04989624	
1737105103638	-0.033340454	
1737105103639	-0.003967285	
1737105103640	-0.018615723	
1737105103641	-0.01991272	
1737105103642	-7.6293945E-4	
1737105103643	0.009155273	
1737105103644	0.025177002	
1737105103645	0.020980835	
1737105103646	0.023269653	
1737105103647	0.009841919	
1737105103648	-0.021743774	
1737105103649	-0.029525757	
1737105103650	-0.036010742	
1737105103651	-0.014724731	
1737105103652	0.015411377	
1737105103653	0.020065308	
1737105103654	0.026779175	
1737105103655	0.0	
1737105103656	-7.6293945E-5	
1737105103657	0.046310425	
1737105103658	0.028381348	
1737105103659	-0.00793457	
1737105103660	-0.010299683	
1737105103661	-0.012283325	
1737105103662	-0.0024414062	
1737105103663	0.021438599	
1737105103664	0.033340454	
1737105103665	0.013580322	
1737105103666	-0.009918213	
1737105103667	-0.011978149	
1737105103668	-0.021591187	
1737105103669	-0.033721924	
1737105103670	-0.038223267	
1737105103671	-0.041122437	
1737105103672	-0.02960205	
1737105103673	0.010299683	
1737105103674	0.036849976	
1737105103675	0.01625061	
1737105103676	0.011672974	
1737105103677	0.028686523	
1737105103678	0.028533936	
1737105103679	0.016098022	
1737105103680	-0.0146484375	
1737105103681	-0.015487671	
1737105103682	0.00793457	
1737105103683	0.0365448	
1737105103684	0.037002563	
1737105103685	0.012130737	
1737105103686	0.020904541	
1737105103687	-0.002746582	
1737105103688	-0.045013428	
1737105103689	-0.041732788	
1737105103690	-0.0019073486	
1737105103691	0.02357483	
1737105103692	-0.021438599	
1737105103693	-0.033187866	
1737105103694	-0.004425049	
1737105103695	0.0047302246	
1737105103696	0.02357483	
1737105103697	0.0062561035	
1737105103698	-0.009002686	
1737105103699	0.0038146973	
1737105103700	-0.022659302	
1737105103701	-0.019683838	
1737105103702	0.03768921	
1737105103703	0.056915283	
1737105103704	0.04486084	
1737105103705	0.027770996	
1737105103706	-0.007247925	
1737105103707	-0.02418518	
1737105103708	-0.025405884	
1737105103709	-0.03303528	
1737105103710	-0.0592041	
1737105103711	-0.12321472	
1737105103712	-0.14640808	
1737105103713	-0.065460205	
1737105103714	0.015792847	
1737105103715	0.043640137	
1737105103716	0.03135681	
1737105103717	0.023345947	
1737105103718	0.06340027	
1737105103719	0.09597778	
1737105103720	0.08895874	
1737105103721	0.059814453	
1737105103722	0.024642944	
1737105103723	0.024719238	
1737105103724	0.04890442	
1737105103725	0.05142212	
1737105103726	0.041732788	
1737105103727	-0.013656616	
1737105103728	-0.061645508	
1737105103729	-0.036849976	
1737105103730	-0.047073364	
1737105103731	-0.064315796	
1737105103732	-0.010604858	
1737105103733	0.025558472	
1737105103734	6.1035156E-4	
1737105103735	-0.04119873	
1737105103736	-0.07110596	
1737105103737	-0.10177612	
1737105103738	-0.0844574	
1737105103739	-0.0017547607	
1737105103740	0.028533936	
1737105103741	0.014343262	
1737105103742	0.03211975	
1737105103743	0.041809082	
1737105103744	0.029296875	
1737105103745	0.038909912	
1737105103746	0.036468506	
1737105103747	-0.017700195	
1737105103748	-0.04737854	
1737105103749	-0.009460449	
1737105103750	0.045776367	
1737105103751	0.07194519	
1737105103752	0.06072998	
1737105103753	0.065841675	
1737105103754	0.042419434	
1737105103755	-0.017166138	
1737105103756	-0.037841797	
1737105103757	-0.052719116	
1737105103758	-0.031051636	
1737105103759	-0.0038909912	
1737105103760	-0.017547607	
1737105103761	-0.011138916	
1737105103762	-0.023269653	
1737105103763	-0.018081665	
1737105103764	0.021514893	
1737105103765	0.037231445	
1737105103766	0.018844604	
1737105103767	-0.03227234	
1737105103768	-0.06378174	
1737105103769	-0.03593445	
1737105103770	0.032806396	
1737105103771	0.05569458	
1737105103772	0.054473877	
1737105103773	0.08560181	
1737105103774	0.061569214	
1737105103775	-0.0059509277	
1737105103776	-0.02746582	
1737105103777	-0.005340576	
1737105103778	-1.5258789E-4	
1737105103779	-0.03189087	
1737105103780	-0.07034302	
1737105103781	-0.1071167	
1737105103782	-0.092926025	
1737105103783	-0.031204224	
1737105103784	0.005722046	
1737105103785	0.025177002	
1737105103786	-0.020904541	
1737105103787	-0.05882263	
1737105103788	0.008239746	
1737105103789	0.046920776	
1737105103790	0.005722046	
1737105103791	-0.032577515	
1737105103792	-0.026397705	
1737105103793	-0.008392334	
1737105103794	0.0146484375	
1737105103795	0.049362183	
1737105103796	0.05218506	
1737105103797	0.076675415	
1737105103798	0.09918213	
1737105103799	0.039749146	
1737105103800	0.019607544	
1737105103801	0.03730774	
1737105103802	0.025024414	
1737105103803	-0.0048828125	
1737105103804	-0.046310425	
1737105103805	-0.08857727	
1737105103806	-0.11253357	
1737105103807	-0.027008057	
1737105103808	0.08934021	
1737105103809	0.109939575	
1737105103810	0.08666992	
1737105103811	0.005645752	
1737105103812	-0.0868988	
1737105103813	-0.091552734	
1737105103814	-0.07911682	
1737105103815	-0.084228516	
1737105103816	-0.053024292	
1737105103817	-0.00579834	
1737105103818	0.016708374	
1737105103819	0.011062622	
1737105103820	-0.026626587	
1737105103821	-0.04676819	
1737105103822	0.01449585	
1737105103823	0.086746216	
1737105103824	0.1084137	
1737105103825	0.10658264	
1737105103826	0.09864807	
1737105103827	0.06965637	
1737105103828	0.007247925	
1737105103829	-0.04096985	
1737105103830	-0.04005432	
1737105103831	0.0010681152	
1737105103832	0.06034851	
1737105103833	0.07194519	
1737105103834	0.04798889	
1737105103835	0.042114258	
1737105103836	-0.044784546	
1737105103837	-0.1499176	
1737105103838	-0.13282776	
1737105103839	-0.15136719	
1737105103840	-0.21057129	
1737105103841	-0.19165039	
1737105103842	-0.14572144	
1737105103843	-0.03364563	
1737105103844	0.069122314	
1737105103845	0.0995636	
1737105103846	0.15357971	
1737105103847	0.18180847	
1737105103848	0.14770508	
1737105103849	0.089645386	
1737105103850	0.028076172	
1737105103851	-0.027160645	
1737105103852	-0.043029785	
1737105103853	-0.024719238	
1737105103854	-0.020523071	
1737105103855	0.0064849854	
1737105103856	0.032348633	
1737105103857	0.0034332275	
1737105103858	-0.004425049	
1737105103859	0.044631958	
1737105103860	0.08354187	
1737105103861	0.07896423	
1737105103862	0.065078735	
1737105103863	0.036087036	
1737105103864	0.012588501	
1737105103865	-0.013198853	
1737105103866	-0.06889343	
1737105103867	-0.059509277	
1737105103868	-0.017929077	
1737105103869	-0.046539307	
1737105103870	-0.081329346	
1737105103871	-0.082473755	
1737105103872	-0.059051514	
1737105103873	-0.033416748	
1737105103874	-0.041122437	
1737105103875	-0.044555664	
1737105103876	-0.028381348	
1737105103877	0.0012969971	
1737105103878	0.029525757	
1737105103879	0.012207031	
1737105103880	-0.001449585	
1737105103881	0.025558472	
1737105103882	0.021057129	
1737105103883	-0.012664795	
1737105103884	-0.0090789795	
1737105103885	0.006790161	
1737105103886	0.012741089	
1737105103887	0.0315094	
1737105103888	0.049362183	
1737105103889	0.037384033	
1737105103890	0.0046539307	
1737105103891	-0.0016784668	
1737105103892	0.01701355	
1737105103893	0.03967285	
1737105103894	0.05645752	
1737105103895	0.042495728	
1737105103896	0.03616333	
1737105103897	0.038223267	
1737105103898	-0.0035858154	
1737105103899	-0.04486084	
1737105103900	-0.04966736	
1737105103901	-0.04714966	
1737105103902	-0.03616333	
1737105103903	-0.018844604	
1737105103904	-0.004196167	
1737105103905	-0.0018310547	
1737105103906	-0.00541687	
1737105103907	6.1035156E-4	
1737105103908	0.001449585	
1737105103909	-0.002746582	
1737105103910	-0.013122559	
1737105103911	-0.022354126	
1737105103912	-0.013656616	
1737105103913	0.0015258789	
1737105103914	0.0065612793	
1737105103915	0.007095337	
1737105103916	0.010757446	
1737105103917	6.866455E-4	
1737105103918	-0.0038146973	
1737105103919	0.0059509277	
1737105103920	0.0051879883	
1737105103921	0.0033569336	
1737105103922	-0.0045776367	
1737105103923	-0.012130737	
1737105103924	-0.0038146973	
1737105103925	6.1035156E-4	
1737105103926	0.0019073486	
1737105103927	0.0022888184	
1737105103928	-0.002822876	
1737105103929	-0.0019073486	
1737105103930	0.0024414062	
1737105103931	0.0016784668	
1737105103932	0.0019836426	
1737105103933	0.0049591064	
1737105103934	0.0073242188	
1737105103935	0.0065612793	
1737105103936	0.0019836426	
1737105103937	0.0032043457	
1737105103938	0.0033569336	
1737105103939	0.0010681152	
1737105103940	0.0019836426	
1737105103941	-0.0019836426	
1737105103942	-0.004501343	
1737105103943	7.6293945E-4	
1737105103944	0.0066375732	
1737105103945	0.004272461	
1737105103946	9.918213E-4	
1737105103947	2.2888184E-4	
1737105103948	7.6293945E-4	
1737105103949	0.004196167	
1737105103950	-7.6293945E-5	
1737105103951	-0.0025939941	
1737105103952	6.1035156E-4	
1737105103953	-0.0024414062	
1737105103954	-0.004425049	
1737105103955	-0.0032043457	
1737105103956	-0.0030517578	
1737105103957	-0.0038146973	
1737105103958	-0.0048828125	
1737105103959	-0.0024414062	
1737105103960	-0.0035095215	
1737105103961	-0.0051116943	
1737105103962	-0.0023651123	
1737105103963	-0.0032043457	
1737105103964	0.0	
1737105103965	0.008087158	
1737105103966	0.005645752	
1737105103967	-0.0032043457	
1737105103968	3.8146973E-4	
1737105103969	0.005264282	
1737105103970	0.004348755	
1737105103971	0.0061035156	
1737105103972	0.0018310547	
1737105103973	-0.0029754639	
1737105103974	-0.0064849854	
1737105103975	-0.0010681152	
1737105103976	6.866455E-4	
1737105103977	-0.0061035156	
1737105103978	0.0020599365	
1737105103979	0.0061798096	
1737105103980	0.0038146973	
1737105103981	9.918213E-4	
1737105103982	-6.1035156E-4	
1737105103983	-0.0012969971	
1737105103984	-0.0032806396	
1737105103985	0.0022125244	
1737105103986	7.6293945E-5	
1737105103987	0.0017547607	
1737105103988	0.0038146973	
1737105103989	-0.0051116943	
1737105103990	0.0010681152	
1737105103991	0.0066375732	
1737105103992	-0.0022125244	
1737105103993	-0.006942749	
1737105103994	-0.0023651123	
1737105103995	-3.8146973E-4	
1737105103996	-0.005493164	
1737105103997	-0.0017547607	
1737105103998	-0.0012207031	
1737105103999	-0.008850098	
1737105104000	-0.0059509277	
1737105104001	-0.0065612793	
1737105104002	-0.010528564	
1737105104003	-0.0077819824	
1737105104004	-0.0051116943	
1737105104005	-3.8146973E-4	
1737105104006	0.0029754639	
1737105104007	0.0051116943	
1737105104008	0.011444092	
1737105104009	0.012054443	
1737105104010	0.0048065186	
1737105104011	-0.001373291	
1737105104012	-0.0021362305	
1737105104013	-4.5776367E-4	
1737105104014	0.0023651123	
1737105104015	0.0061035156	
1737105104016	0.009155273	
1737105104017	0.013046265	
1737105104018	0.010986328	
1737105104019	0.0010681152	
1737105104020	-0.0060272217	
1737105104021	-0.012893677	
1737105104022	-0.025482178	
1737105104023	-0.024261475	
1737105104024	-0.013885498	
1737105104025	-0.010299683	
1737105104026	-0.0063323975	
1737105104027	-0.0064086914	
1737105104028	-0.0016784668	
1737105104029	0.0031280518	
1737105104030	-0.002822876	
1737105104031	-0.001373291	
1737105104032	9.1552734E-4	
1737105104033	0.0011444092	
1737105104034	0.004501343	
1737105104035	0.012588501	
1737105104036	0.02204895	
1737105104037	0.02067566	
1737105104038	0.021743774	
1737105104039	0.030517578	
1737105104040	0.031433105	
1737105104041	0.022125244	
1737105104042	0.025634766	
1737105104043	0.020523071	
1737105104044	0.019073486	
1737105104045	0.024108887	
1737105104046	0.020370483	
1737105104047	0.016174316	
1737105104048	0.004196167	
1737105104049	0.00289917	
1737105104050	-0.003967285	
1737105104051	-0.011749268	
1737105104052	-0.015258789	
1737105104053	-0.022277832	
1737105104054	-0.018157959	
1737105104055	-0.01914978	
1737105104056	-0.020523071	
1737105104057	-0.016860962	
1737105104058	-0.01777649	
1737105104059	-0.021820068	
1737105104060	-0.024642944	
1737105104061	-0.018692017	
1737105104062	-0.020065308	
1737105104063	-0.02456665	
1737105104064	-0.019989014	
1737105104065	-0.024261475	
1737105104066	-0.0340271	
1737105104067	-0.031661987	
1737105104068	-0.02784729	
1737105104069	-0.028533936	
1737105104070	-0.03189087	
1737105104071	-0.02960205	
1737105104072	-0.022277832	
1737105104073	-0.0119018555	
1737105104074	0.0017547607	
1737105104075	0.01335144	
1737105104076	0.017623901	
1737105104077	0.023956299	
1737105104078	0.0365448	
1737105104079	0.04234314	
1737105104080	0.047607422	
1737105104081	0.047683716	
1737105104082	0.054626465	
1737105104083	0.053634644	
1737105104084	0.04272461	
1737105104085	0.03387451	
1737105104086	0.02746582	
1737105104087	0.026473999	
1737105104088	0.02532959	
1737105104089	0.020599365	
1737105104090	0.014419556	
1737105104091	0.0011444092	
1737105104092	-0.0061035156	
1737105104093	-0.012054443	
1737105104094	-0.018920898	
1737105104095	-0.022125244	
1737105104096	-0.02784729	
1737105104097	-0.032806396	
1737105104098	-0.028839111	
1737105104099	-0.031585693	
1737105104100	-0.02571106	
1737105104101	-0.01914978	
1737105104102	-0.016937256	
1737105104103	-0.022201538	
1737105104104	-0.021743774	
1737105104105	-0.01953125	
1737105104106	-0.012130737	
1737105104107	0.0049591064	
1737105104108	0.0037384033	
1737105104109	0.0074768066	
1737105104110	0.0132751465	
1737105104111	0.012969971	
1737105104112	0.009002686	
1737105104113	0.0061035156	
1737105104114	0.0045776367	
1737105104115	0.010986328	
1737105104116	0.009765625	
1737105104117	0.0035095215	
1737105104118	0.007019043	
1737105104119	0.0062561035	
1737105104120	0.009155273	
1737105104121	-0.0016784668	
1737105104122	-0.004196167	
1737105104123	0.0038909912	
1737105104124	0.004196167	
1737105104125	0.0051116943	
1737105104126	-2.2888184E-4	
1737105104127	-0.004119873	
1737105104128	-0.0104522705	
1737105104129	-0.014724731	
1737105104130	-0.019683838	
1737105104131	-0.006866455	
1737105104132	-0.0024414062	
1737105104133	-0.0022125244	
1737105104134	0.0023651123	
1737105104135	-0.008087158	
1737105104136	0.0024414062	
1737105104137	0.012512207	
1737105104138	0.016098022	
1737105104139	0.014419556	
1737105104140	0.016403198	
1737105104141	0.016479492	
1737105104142	0.01449585	
1737105104143	0.017700195	
1737105104144	0.009689331	
1737105104145	0.0077819824	
1737105104146	0.0118255615	
1737105104147	0.007858276	
1737105104148	0.009002686	
1737105104149	0.0048065186	
1737105104150	-0.0075531006	
1737105104151	-0.009918213	
1737105104152	-0.01159668	
1737105104153	-0.019836426	
1737105104154	-0.019683838	
1737105104155	-0.012817383	
1737105104156	-0.018234253	
1737105104157	-0.01625061	
1737105104158	-0.012664795	
1737105104159	-0.0064086914	
1737105104160	-0.0077819824	
1737105104161	-0.005645752	
1737105104162	-0.008850098	
1737105104163	0.001449585	
1737105104164	0.009155273	
1737105104165	-0.0045776367	
1737105104166	-0.0011444092	
1737105104167	0.0031280518	
1737105104168	-0.0032043457	
1737105104169	-0.006790161	
1737105104170	0.0017547607	
1737105104171	-0.0076293945	
1737105104172	-0.012283325	
1737105104173	0.004119873	
1737105104174	0.0051879883	
1737105104175	0.011672974	
1737105104176	0.023651123	
1737105104177	0.018081665	
1737105104178	0.015258789	
1737105104179	0.014953613	
1737105104180	0.010986328	
1737105104181	0.0035858154	
1737105104182	-0.007019043	
1737105104183	-0.009918213	
1737105104184	-0.0024414062	
1737105104185	9.918213E-4	
1737105104186	0.0077056885	
1737105104187	0.013198853	
1737105104188	0.006866455	
1737105104189	0.012130737	
1737105104190	0.011749268	
1737105104191	0.010223389	
1737105104192	0.009155273	
1737105104193	0.0061798096	
1737105104194	0.0061798096	
1737105104195	0.0074005127	
1737105104196	-0.0012969971	
1737105104197	-0.002822876	
1737105104198	-0.0051879883	
1737105104199	-0.004043579	
1737105104200	-0.011138916	
1737105104201	-0.018997192	
1737105104202	-0.01701355	
1737105104203	-0.026397705	
1737105104204	-0.02571106	
1737105104205	-0.025863647	
1737105104206	-0.027236938	
1737105104207	-0.028152466	
1737105104208	-0.024719238	
1737105104209	-0.012054443	
1737105104210	-0.009536743	
1737105104211	-0.012664795	
1737105104212	-0.00869751	
1737105104213	-0.0061035156	
1737105104214	-0.0066375732	
1737105104215	-0.0030517578	
1737105104216	0.010604858	
1737105104217	0.006790161	
1737105104218	0.011749268	
1737105104219	0.012512207	
1737105104220	0.019836426	
1737105104221	0.036239624	
1737105104222	0.03288269	
1737105104223	0.038146973	
1737105104224	0.036315918	
1737105104225	0.035095215	
1737105104226	0.039520264	
1737105104227	0.030517578	
1737105104228	0.023040771	
1737105104229	0.018310547	
1737105104230	0.011138916	
1737105104231	0.0064086914	
1737105104232	-0.004119873	
1737105104233	-0.0019836426	
1737105104234	-0.008544922	
1737105104235	-0.014724731	
1737105104236	-0.01121521	
1737105104237	-0.014724731	
1737105104238	-0.019607544	
1737105104239	-0.02609253	
1737105104240	-0.022277832	
1737105104241	-0.024642944	
1737105104242	-0.021820068	
1737105104243	-0.02029419	
1737105104244	-0.024719238	
1737105104245	-0.023269653	
1737105104246	-0.01411438	
1737105104247	-0.0033569336	
1737105104248	-0.011062622	
1737105104249	-0.008010864	
1737105104250	-0.005645752	
1737105104251	-0.006713867	
1737105104252	-6.1035156E-4	
1737105104253	9.918213E-4	
1737105104254	0.0011444092	
1737105104255	0.0023651123	
1737105104256	0.0045776367	
1737105104257	0.011291504	
1737105104258	0.015640259	
1737105104259	0.015792847	
1737105104260	0.018844604	
1737105104261	0.026245117	
1737105104262	0.023422241	
1737105104263	0.022506714	
1737105104264	0.03425598	
1737105104265	0.036010742	
1737105104266	0.035629272	
1737105104267	0.037384033	
1737105104268	0.0365448	
1737105104269	0.035476685	
1737105104270	0.032424927	
1737105104271	0.026397705	
1737105104272	0.0090789795	
1737105104273	-0.002822876	
1737105104274	-0.0074768066	
1737105104275	-0.0146484375	
1737105104276	-0.023117065	
1737105104277	-0.03883362	
1737105104278	-0.045928955	
1737105104279	-0.047225952	
1737105104280	-0.049438477	
1737105104281	-0.048599243	
1737105104282	-0.047683716	
1737105104283	-0.041427612	
1737105104284	-0.04058838	
1737105104285	-0.038146973	
1737105104286	-0.03692627	
1737105104287	-0.025024414	
1737105104288	-0.018234253	
1737105104289	-0.018310547	
1737105104290	-0.005264282	
1737105104291	0.0030517578	
1737105104292	0.015487671	
1737105104293	0.01586914	
1737105104294	0.019454956	
1737105104295	0.031204224	
1737105104296	0.012817383	
1737105104297	0.022583008	
1737105104298	0.016403198	
1737105104299	0.01953125	
1737105104300	0.012359619	
1737105104301	0.0022888184	
1737105104302	-6.1035156E-4	
1737105104303	-0.011444092	
1737105104304	-0.011672974	
1737105104305	-0.015792847	
1737105104306	-0.014572144	
1737105104307	-3.0517578E-4	
1737105104308	0.004119873	
1737105104309	0.016021729	
1737105104310	0.027389526	
1737105104311	0.03036499	
1737105104312	0.041275024	
1737105104313	0.033569336	
1737105104314	0.029754639	
1737105104315	0.027236938	
1737105104316	0.01991272	
1737105104317	0.019302368	
1737105104318	0.010223389	
1737105104319	0.0063323975	
1737105104320	2.2888184E-4	
1737105104321	0.0012207031	
1737105104322	-0.0023651123	
1737105104323	-0.01701355	
1737105104324	-0.025634766	
1737105104325	-0.026016235	
1737105104326	-0.015640259	
1737105104327	-0.0030517578	
1737105104328	-0.0019073486	
1737105104329	0.0020599365	
1737105104330	0.0030517578	
1737105104331	-0.0016021729	
1737105104332	0.00869751	
1737105104333	0.015716553	
1737105104334	0.021362305	
1737105104335	0.02243042	
1737105104336	0.015640259	
1737105104337	0.015487671	
1737105104338	0.011138916	
1737105104339	0.010528564	
1737105104340	0.008621216	
1737105104341	0.0033569336	
1737105104342	0.004425049	
1737105104343	5.340576E-4	
1737105104344	-0.001449585	
1737105104345	-0.0061798096	
1737105104346	-0.0061798096	
1737105104347	-3.8146973E-4	
1737105104348	-0.0062561035	
1737105104349	-0.018081665	
1737105104350	-0.026931763	
1737105104351	-0.024337769	
1737105104352	-0.016860962	
1737105104353	-0.01121521	
1737105104354	-0.0063323975	
1737105104355	-0.010147095	
1737105104356	-0.018539429	
1737105104357	-0.018463135	
1737105104358	-0.020828247	
1737105104359	-0.031661987	
1737105104360	-0.03211975	
1737105104361	-0.026931763	
1737105104362	-0.023498535	
1737105104363	-0.015640259	
1737105104364	-0.008850098	
1737105104365	-0.017166138	
1737105104366	-0.02670288	
1737105104367	-0.031585693	
1737105104368	-0.037994385	
1737105104369	-0.03463745	
1737105104370	-0.032196045	
1737105104371	-0.025482178	
1737105104372	-0.014724731	
1737105104373	-0.011062622	
1737105104374	-0.010223389	
1737105104375	-0.0025939941	
1737105104376	-0.004196167	
1737105104377	0.0025177002	
1737105104378	0.019454956	
1737105104379	0.021972656	
1737105104380	0.03173828	
1737105104381	0.037231445	
1737105104382	0.04310608	
1737105104383	0.057525635	
1737105104384	0.0743103	
1737105104385	0.09933472	
1737105104386	0.12588501	
1737105104387	0.1360321	
1737105104388	0.13214111	
1737105104389	0.122680664	
1737105104390	0.109176636	
1737105104391	0.084228516	
1737105104392	0.04837036	
1737105104393	0.024642944	
1737105104394	0.0018310547	
1737105104395	-0.022506714	
1737105104396	-0.03578186	
1737105104397	-0.040893555	
1737105104398	-0.04928589	
1737105104399	-0.04875183	
1737105104400	-0.050048828	
1737105104401	-0.064086914	
1737105104402	-0.063934326	
1737105104403	-0.05508423	
1737105104404	-0.06324768	
1737105104405	-0.071640015	
1737105104406	-0.063934326	
1737105104407	-0.06072998	
1737105104408	-0.060958862	
1737105104409	-0.054779053	
1737105104410	-0.0642395	
1737105104411	-0.07926941	
1737105104412	-0.081710815	
1737105104413	-0.093688965	
1737105104414	-0.10345459	
1737105104415	-0.10093689	
1737105104416	-0.08102417	
1737105104417	-0.04928589	
1737105104418	-0.023956299	
1737105104419	-0.0034332275	
1737105104420	0.012588501	
1737105104421	0.036087036	
1737105104422	0.062179565	
1737105104423	0.08018494	
1737105104424	0.08529663	
1737105104425	0.0769043	
1737105104426	0.06401062	
1737105104427	0.06111145	
1737105104428	0.05508423	
1737105104429	0.049819946	
1737105104430	0.055847168	
1737105104431	0.057296753	
1737105104432	0.049591064	
1737105104433	0.028305054	
1737105104434	0.016098022	
1737105104435	0.02571106	
1737105104436	0.02784729	
1737105104437	0.020141602	
1737105104438	0.022354126	
1737105104439	0.029907227	
1737105104440	0.034484863	
1737105104441	0.040893555	
1737105104442	0.05180359	
1737105104443	0.06492615	
1737105104444	0.07476807	
1737105104445	0.07598877	
1737105104446	0.07865906	
1737105104447	0.07949829	
1737105104448	0.06645203	
1737105104449	0.03883362	
1737105104450	0.0045776367	
1737105104451	-0.027389526	
1737105104452	-0.050735474	
1737105104453	-0.079956055	
1737105104454	-0.10574341	
1737105104455	-0.10734558	
1737105104456	-0.114974976	
1737105104457	-0.120773315	
1737105104458	-0.113220215	
1737105104459	-0.098724365	
1737105104460	-0.087890625	
1737105104461	-0.07766724	
1737105104462	-0.052871704	
1737105104463	-0.032577515	
1737105104464	-0.006790161	
1737105104465	0.011672974	
1737105104466	0.01586914	
1737105104467	0.044784546	
1737105104468	0.031051636	
1737105104469	9.1552734E-4	
1737105104470	-0.025253296	
1737105104471	-0.059509277	
1737105104472	-0.06439209	
1737105104473	-0.076828	
1737105104474	-0.07698059	
1737105104475	-0.060195923	
1737105104476	-0.055389404	
1737105104477	-0.047454834	
1737105104478	-0.028152466	
1737105104479	-0.014801025	
1737105104480	-0.009231567	
1737105104481	0.008773804	
1737105104482	0.030670166	
1737105104483	0.07400513	
1737105104484	0.106277466	
1737105104485	0.12260437	
1737105104486	0.14930725	
1737105104487	0.14678955	
1737105104488	0.12992859	
1737105104489	0.116119385	
1737105104490	0.08956909	
1737105104491	0.07720947	
1737105104492	0.07461548	
1737105104493	0.069732666	
1737105104494	0.067596436	
1737105104495	0.06736755	
1737105104496	0.07698059	
1737105104497	0.08178711	
1737105104498	0.05836487	
1737105104499	0.024871826	
1737105104500	0.0073242188	
1737105104501	-0.015792847	
1737105104502	-0.047836304	
1737105104503	-0.06454468	
1737105104504	-0.07797241	
1737105104505	-0.09811401	
1737105104506	-0.1133728	
1737105104507	-0.12496948	
1737105104508	-0.1348877	
1737105104509	-0.13038635	
1737105104510	-0.1197052	
1737105104511	-0.11299133	
1737105104512	-0.10467529	
1737105104513	-0.09864807	
1737105104514	-0.0907135	
1737105104515	-0.07575989	
1737105104516	-0.055923462	
1737105104517	-0.027770996	
1737105104518	-0.012664795	
1737105104519	0.008239746	
1737105104520	0.03868103	
1737105104521	0.05897522	
1737105104522	0.074920654	
1737105104523	0.09056091	
1737105104524	0.10681152	
1737105104525	0.111312866	
1737105104526	0.11871338	
1737105104527	0.117492676	
1737105104528	0.108184814	
1737105104529	0.10688782	
1737105104530	0.093307495	
1737105104531	0.07286072	
1737105104532	0.055007935	
1737105104533	0.033416748	
1737105104534	0.019607544	
1737105104535	-0.0025939941	
1737105104536	-0.019607544	
1737105104537	-0.04234314	
1737105104538	-0.07133484	
1737105104539	-0.084991455	
1737105104540	-0.084609985	
1737105104541	-0.09017944	
1737105104542	-0.09933472	
1737105104543	-0.1007843	
1737105104544	-0.10948181	
1737105104545	-0.11543274	
1737105104546	-0.108566284	
1737105104547	-0.09353638	
1737105104548	-0.08018494	
1737105104549	-0.055007935	
1737105104550	-0.031204224	
1737105104551	-0.009918213	
1737105104552	0.014801025	
1737105104553	0.036621094	
1737105104554	0.053253174	
1737105104555	0.0717926	
1737105104556	0.08506775	
1737105104557	0.102386475	
1737105104558	0.10635376	
1737105104559	0.0970459	
1737105104560	0.106658936	
1737105104561	0.09552002	
1737105104562	0.09338379	
1737105104563	0.08934021	
1737105104564	0.07064819	
1737105104565	0.047683716	
1737105104566	0.032043457	
1737105104567	0.027542114	
1737105104568	0.010986328	
1737105104569	-0.008239746	
1737105104570	-0.029907227	
1737105104571	-0.04119873	
1737105104572	-0.04989624	
1737105104573	-0.05104065	
1737105104574	-0.052871704	
1737105104575	-0.052490234	
1737105104576	-0.033798218	
1737105104577	-0.033111572	
1737105104578	-0.025177002	
1737105104579	-0.0077056885	
1737105104580	-0.009613037	
1737105104581	-0.012664795	
1737105104582	-0.023651123	
1737105104583	-0.026473999	
1737105104584	-0.011520386	
1737105104585	-0.010375977	
1737105104586	-0.020751953	
1737105104587	-0.026550293	
1737105104588	-0.02128601	
1737105104589	-0.024719238	
1737105104590	-0.01777649	
1737105104591	-0.006713867	
1737105104592	9.1552734E-4	
1737105104593	0.021514893	
1737105104594	0.026931763	
1737105104595	0.0060272217	
1737105104596	-0.004043579	
1737105104597	-0.009231567	
1737105104598	-0.01739502	
1737105104599	-0.019607544	
1737105104600	-0.010223389	
1737105104601	0.022354126	
1737105104602	0.037841797	
1737105104603	0.037384033	
1737105104604	0.030136108	
1737105104605	0.018463135	
1737105104606	0.021514893	
1737105104607	0.0064086914	
1737105104608	0.010299683	
1737105104609	0.015335083	
1737105104610	-9.918213E-4	
1737105104611	-0.02784729	
1737105104612	-0.054779053	
1737105104613	-0.05470276	
1737105104614	-0.039901733	
1737105104615	-0.031967163	
1737105104616	-0.018920898	
1737105104617	0.0077819824	
1737105104618	0.004501343	
1737105104619	-7.6293945E-5	
1737105104620	0.02243042	
1737105104621	0.03829956	
1737105104622	0.0340271	
1737105104623	0.028839111	
1737105104624	0.030059814	
1737105104625	0.033111572	
1737105104626	0.038604736	
1737105104627	0.033111572	
1737105104628	0.03112793	
1737105104629	0.031967163	
1737105104630	0.025024414	
1737105104631	0.016326904	
1737105104632	0.00869751	
1737105104633	-0.016326904	
1737105104634	-0.038375854	
1737105104635	-0.025253296	
1737105104636	-7.6293945E-5	
1737105104637	-0.0060272217	
1737105104638	-0.019302368	
1737105104639	-0.022583008	
1737105104640	-0.029373169	
1737105104641	-0.03479004	
1737105104642	-0.017166138	
1737105104643	0.0036621094	
1737105104644	-1.5258789E-4	
1737105104645	-0.015335083	
1737105104646	-0.016326904	
1737105104647	-0.009994507	
1737105104648	-0.0146484375	
1737105104649	-0.016098022	
1737105104650	-0.006790161	
1737105104651	-0.0012207031	
1737105104652	-0.010070801	
1737105104653	-0.018997192	
1737105104654	0.0016784668	
1737105104655	0.03517151	
1737105104656	0.025939941	
1737105104657	0.010223389	
1737105104658	0.02204895	
1737105104659	0.01701355	
1737105104660	0.009307861	
1737105104661	0.017471313	
1737105104662	0.021057129	
1737105104663	0.027999878	
1737105104664	0.026397705	
1737105104665	0.00289917	
1737105104666	-0.03303528	
1737105104667	-0.033187866	
1737105104668	-0.004272461	
1737105104669	-0.0011444092	
1737105104670	0.0074005127	
1737105104671	0.022201538	
1737105104672	0.016860962	
1737105104673	0.021591187	
1737105104674	0.011672974	
1737105104675	-0.0015258789	
1737105104676	0.01335144	
1737105104677	-0.0074005127	
1737105104678	-0.043792725	
1737105104679	-0.055007935	
1737105104680	-0.041885376	
1737105104681	-0.009689331	
1737105104682	-0.0018310547	
1737105104683	0.002746582	
1737105104684	0.022277832	
1737105104685	0.013809204	
1737105104686	-0.0064849854	
1737105104687	0.0015258789	
1737105104688	0.00579834	
1737105104689	-0.005722046	
1737105104690	-0.015716553	
1737105104691	-0.023727417	
1737105104692	-0.008239746	
1737105104693	-0.008468628	
1737105104694	-0.04135132	
1737105104695	-0.04234314	
1737105104696	-0.0077819824	
1737105104697	0.02998352	
1737105104698	0.045928955	
1737105104699	0.03753662	
1737105104700	0.029449463	
1737105104701	0.006713867	
1737105104702	0.010757446	
1737105104703	0.015563965	
1737105104704	-0.043258667	
1737105104705	-0.03807068	
1737105104706	0.0029754639	
1737105104707	0.013504028	
1737105104708	0.02067566	
1737105104709	-0.00869751	
1737105104710	-0.021591187	
1737105104711	0.026931763	
1737105104712	0.060043335	
1737105104713	0.058135986	
1737105104714	0.061035156	
1737105104715	0.03883362	
1737105104716	-0.012741089	
1737105104717	-0.050201416	
1737105104718	-0.05470276	
1737105104719	-0.04623413	
1737105104720	-0.028762817	
1737105104721	0.023040771	
1737105104722	0.035324097	
1737105104723	0.004043579	
1737105104724	0.020599365	
1737105104725	0.022201538	
1737105104726	0.009613037	
1737105104727	0.0063323975	
1737105104728	-0.020446777	
1737105104729	-0.030288696	
1737105104730	-0.010070801	
1737105104731	3.8146973E-4	
1737105104732	-0.012741089	
1737105104733	-0.0146484375	
1737105104734	-0.0020599365	
1737105104735	0.0033569336	
1737105104736	-0.015487671	
1737105104737	-0.04837036	
1737105104738	-0.051498413	
1737105104739	-0.029830933	
1737105104740	-0.030288696	
1737105104741	-0.013885498	
1737105104742	0.023498535	
1737105104743	0.034332275	
1737105104744	0.036087036	
1737105104745	0.03944397	
1737105104746	0.040740967	
1737105104747	0.058670044	
1737105104748	0.0680542	
1737105104749	0.027008057	
1737105104750	-0.006713867	
1737105104751	-0.022354126	
1737105104752	-0.058898926	
1737105104753	-0.049819946	
1737105104754	0.012283325	
1737105104755	0.047607422	
1737105104756	0.051727295	
1737105104757	0.04890442	
1737105104758	0.027008057	
1737105104759	-0.009002686	
1737105104760	-0.03135681	
1737105104761	-0.039520264	
1737105104762	-0.050048828	
1737105104763	-0.041656494	
1737105104764	-0.010757446	
1737105104765	-0.0045776367	
1737105104766	-0.039596558	
1737105104767	-0.05783081	
1737105104768	-0.041732788	
1737105104769	-0.013427734	
1737105104770	0.025558472	
1737105104771	0.043563843	
1737105104772	0.0315094	
1737105104773	0.016403198	
1737105104774	0.013885498	
1737105104775	0.022125244	
1737105104776	0.019836426	
1737105104777	0.02204895	
1737105104778	0.021591187	
1737105104779	-0.014190674	
1737105104780	-0.052490234	
1737105104781	-0.09101868	
1737105104782	-0.11703491	
1737105104783	-0.06034851	
1737105104784	-0.02204895	
1737105104785	-0.004348755	
1737105104786	0.06111145	
1737105104787	0.042114258	
1737105104788	0.0036621094	
1737105104789	0.027694702	
1737105104790	0.03364563	
1737105104791	0.031051636	
1737105104792	0.025863647	
1737105104793	0.046463013	
1737105104794	0.056381226	
1737105104795	0.055923462	
1737105104796	0.077438354	
1737105104797	0.061416626	
1737105104798	0.0104522705	
1737105104799	-0.023269653	
1737105104800	-0.02357483	
1737105104801	-0.039138794	
1737105104802	-0.06530762	
1737105104803	-0.03845215	
1737105104804	0.004196167	
1737105104805	0.008392334	
1737105104806	-0.008621216	
1737105104807	-0.02494812	
1737105104808	-0.02128601	
1737105104809	0.009155273	
1737105104810	0.03982544	
1737105104811	0.01335144	
1737105104812	-0.020446777	
1737105104813	-0.04814148	
1737105104814	-0.053634644	
1737105104815	0.020751953	
1737105104816	0.049209595	
1737105104817	0.025558472	
1737105104818	0.049438477	
1737105104819	0.031814575	
1737105104820	-0.017318726	
1737105104821	-0.011367798	
1737105104822	-0.010299683	
1737105104823	-0.022735596	
1737105104824	-0.0074768066	
1737105104825	-0.009460449	
1737105104826	-0.04737854	
1737105104827	-0.064086914	
1737105104828	-0.053253174	
1737105104829	-0.018539429	
1737105104830	0.057525635	
1737105104831	0.0932312	
1737105104832	0.036697388	
1737105104833	-0.0340271	
1737105104834	-0.049362183	
1737105104835	-0.037002563	
1737105104836	-0.03517151	
1737105104837	-0.020599365	
1737105104838	-0.020599365	
1737105104839	0.0019836426	
1737105104840	0.06072998	
1737105104841	0.067596436	
1737105104842	0.070877075	
1737105104843	0.054473877	
1737105104844	0.01739502	
1737105104845	0.026550293	
1737105104846	0.0024414062	
1737105104847	-0.027618408	
1737105104848	-0.0020599365	
1737105104849	0.022201538	
1737105104850	0.00289917	
1737105104851	-0.04043579	
1737105104852	-0.05531311	
1737105104853	-0.027236938	
1737105104854	-0.01159668	
1737105104855	-0.04737854	
1737105104856	-0.056152344	
1737105104857	-0.028076172	
1737105104858	-0.038375854	
1737105104859	-0.028839111	
1737105104860	0.026550293	
1737105104861	0.05241394	
1737105104862	0.05432129	
1737105104863	0.055389404	
1737105104864	0.023803711	
1737105104865	-0.048065186	
1737105104866	-0.057296753	
1737105104867	-0.04562378	
1737105104868	-0.04135132	
1737105104869	0.023880005	
1737105104870	0.052719116	
1737105104871	0.046539307	
1737105104872	0.05432129	
1737105104873	0.024108887	
1737105104874	-0.02670288	
1737105104875	-0.03730774	
1737105104876	0.0046539307	
1737105104877	0.059432983	
1737105104878	0.084228516	
1737105104879	0.06729126	
1737105104880	0.037612915	
1737105104881	-2.2888184E-4	
1737105104882	-0.059890747	
1737105104883	-0.075683594	
1737105104884	-0.037384033	
1737105104885	-0.016174316	
1737105104886	8.392334E-4	
1737105104887	0.029067993	
1737105104888	0.02708435	
1737105104889	0.0059509277	
1737105104890	-0.021743774	
1737105104891	-0.055770874	
1737105104892	-0.055847168	
1737105104893	-0.058670044	
1737105104894	-0.056381226	
1737105104895	0.0074768066	
1737105104896	0.027618408	
1737105104897	-0.007171631	
1737105104898	0.015335083	
1737105104899	0.054855347	
1737105104900	0.060653687	
1737105104901	0.07072449	
1737105104902	0.055389404	
1737105104903	-0.03967285	
1737105104904	-0.08773804	
1737105104905	-0.014266968	
1737105104906	0.026626587	
1737105104907	-0.019454956	
1737105104908	-0.03211975	
1737105104909	0.008850098	
1737105104910	0.014953613	
1737105104911	0.009384155	
1737105104912	0.026016235	
1737105104913	0.017471313	
1737105104914	0.005874634	
1737105104915	0.0051879883	
1737105104916	0.008621216	
1737105104917	0.02029419	
1737105104918	0.037841797	
1737105104919	0.059127808	
1737105104920	0.04875183	
1737105104921	0.0024414062	
1737105104922	-0.07080078	
1737105104923	-0.11734009	
1737105104924	-0.11199951	
1737105104925	-0.10719299	
1737105104926	-0.053329468	
1737105104927	0.01739502	
1737105104928	0.02822876	
1737105104929	0.048446655	
1737105104930	0.06225586	
1737105104931	0.040359497	
1737105104932	0.039367676	
1737105104933	0.028915405	
1737105104934	-0.0011444092	
1737105104935	-0.023956299	
1737105104936	-0.023727417	
1737105104937	-0.006713867	
1737105104938	-0.028457642	
1737105104939	-0.043792725	
1737105104940	-6.866455E-4	
1737105104941	0.04547119	
1737105104942	0.06286621	
1737105104943	0.046081543	
1737105104944	-4.5776367E-4	
1737105104945	-0.030517578	
1737105104946	-0.02357483	
1737105104947	-0.023498535	
1737105104948	-0.018310547	
1737105104949	0.033340454	
1737105104950	0.06210327	
1737105104951	0.03555298	
1737105104952	-0.007858276	
1737105104953	-0.035324097	
1737105104954	-0.031967163	
1737105104955	-0.028152466	
1737105104956	-0.027313232	
1737105104957	-0.015716553	
1737105104958	0.0048065186	
1737105104959	0.022659302	
1737105104960	0.03364563	
1737105104961	0.030441284	
1737105104962	0.012435913	
1737105104963	0.009994507	
1737105104964	0.008239746	
1737105104965	0.0012969971	
1737105104966	-0.0032806396	
1737105104967	-0.010910034	
1737105104968	-0.0077056885	
1737105104969	0.0012969971	
1737105104970	0.0034332275	
1737105104971	0.0018310547	
1737105104972	-0.0022888184	
1737105104973	-0.010681152	
1737105104974	-0.012588501	
1737105104975	-0.010299683	
1737105104976	-0.01953125	
1737105104977	-0.014190674	
1737105104978	-3.8146973E-4	
1737105104979	-0.0060272217	
1737105104980	-0.012207031	
1737105104981	-0.014190674	
1737105104982	-0.015106201	
1737105104983	0.0012207031	
1737105104984	0.014343262	
1737105104985	0.0022888184	
1737105104986	-0.005645752	
1737105104987	-7.6293945E-4	
1737105104988	2.2888184E-4	
1737105104989	8.392334E-4	
1737105104990	0.0023651123	
1737105104991	-0.0015258789	
1737105104992	-0.0047302246	
1737105104993	0.006790161	
1737105104994	0.012893677	
1737105104995	0.0065612793	
1737105104996	0.004425049	
1737105104997	0.009460449	
1737105104998	0.0104522705	
1737105104999	0.0023651123	
1737105105000	-9.1552734E-4	
1737105105001	-1.5258789E-4	
1737105105002	-0.0029754639	
1737105105003	-0.0031280518	
1737105105004	6.1035156E-4	
1737105105005	0.0075531006	
1737105105006	0.0059509277	
1737105105007	0.006713867	
1737105105008	0.008163452	
1737105105009	0.0060272217	
1737105105010	0.009231567	
1737105105011	0.0048828125	
1737105105012	0.0045776367	
1737105105013	0.0048065186	
1737105105014	-0.0032806396	
1737105105015	-0.001373291	
1737105105016	0.004501343	
1737105105017	0.0047302246	
1737105105018	-3.8146973E-4	
1737105105019	-0.009765625	
1737105105020	-0.015106201	
1737105105021	-0.0050354004	
1737105105022	-0.0047302246	
1737105105023	-0.015106201	
1737105105024	-0.0076293945	
1737105105025	-0.0012207031	
1737105105026	-0.004119873	
1737105105027	-0.004425049	
1737105105028	-0.0025177002	
1737105105029	-0.0011444092	
1737105105030	-0.0023651123	
1737105105031	-0.0046539307	
1737105105032	-0.004501343	
1737105105033	-0.00289917	
1737105105034	-0.0030517578	
1737105105035	-7.6293945E-4	
1737105105036	9.918213E-4	
1737105105037	2.2888184E-4	
1737105105038	0.0016784668	
1737105105039	-0.0012969971	
1737105105040	-0.0023651123	
1737105105041	0.004348755	
1737105105042	0.002822876	
1737105105043	-0.0047302246	
1737105105044	0.0019836426	
1737105105045	0.005722046	
1737105105046	-0.0034332275	
1737105105047	-5.340576E-4	
1737105105048	0.0017547607	
1737105105049	-0.0025939941	
1737105105050	-0.003967285	
1737105105051	-0.0035858154	
1737105105052	0.0074768066	
1737105105053	0.015487671	
1737105105054	0.015106201	
1737105105055	0.020217896	
1737105105056	0.016860962	
1737105105057	0.00869751	
1737105105058	0.0064086914	
1737105105059	0.0051879883	
1737105105060	0.0012207031	
1737105105061	-0.013809204	
1737105105062	-0.020828247	
1737105105063	-0.015029907	
1737105105064	-0.01373291	
1737105105065	-0.014419556	
1737105105066	-0.013046265	
1737105105067	-0.013504028	
1737105105068	-0.016098022	
1737105105069	-0.013809204	
1737105105070	-0.013504028	
1737105105071	-0.009536743	
1737105105072	-0.0015258789	
1737105105073	-0.0047302246	
1737105105074	-0.0074768066	
1737105105075	-0.0046539307	
1737105105076	-0.008621216	
1737105105077	-6.866455E-4	
1737105105078	0.0010681152	
1737105105079	9.918213E-4	
1737105105080	0.010299683	
1737105105081	0.009460449	
1737105105082	0.006790161	
1737105105083	0.015182495	
1737105105084	0.02418518	
1737105105085	0.019989014	
1737105105086	0.020904541	
1737105105087	0.030288696	
1737105105088	0.03364563	
1737105105089	0.035858154	
1737105105090	0.033569336	
1737105105091	0.03135681	
1737105105092	0.035858154	
1737105105093	0.02418518	
1737105105094	0.02029419	
1737105105095	0.022125244	
1737105105096	0.018005371	
1737105105097	0.012130737	
1737105105098	0.001449585	
1737105105099	-0.009994507	
1737105105100	-0.022201538	
1737105105101	-0.024795532	
1737105105102	-0.03479004	
1737105105103	-0.034484863	
1737105105104	-0.033950806	
1737105105105	-0.034866333	
1737105105106	-0.030670166	
1737105105107	-0.034332275	
1737105105108	-0.030441284	
1737105105109	-0.03753662	
1737105105110	-0.039978027	
1737105105111	-0.030059814	
1737105105112	-0.031967163	
1737105105113	-0.03112793	
1737105105114	-0.028152466	
1737105105115	-0.027770996	
1737105105116	-0.025177002	
1737105105117	-0.02281189	
1737105105118	-0.015716553	
1737105105119	-0.008087158	
1737105105120	-0.0023651123	
1737105105121	0.007095337	
1737105105122	0.02067566	
1737105105123	0.029830933	
1737105105124	0.029525757	
1737105105125	0.027236938	
1737105105126	0.027389526	
1737105105127	0.037994385	
1737105105128	0.04386902	
1737105105129	0.039901733	
1737105105130	0.04585266	
1737105105131	0.04875183	
1737105105132	0.041732788	
1737105105133	0.03189087	
1737105105134	0.020751953	
1737105105135	0.010223389	
1737105105136	0.010223389	
1737105105137	0.015029907	
1737105105138	0.0132751465	
1737105105139	-0.004501343	
1737105105140	-0.015029907	
1737105105141	-0.018844604	
1737105105142	-0.031204224	
1737105105143	-0.025024414	
1737105105144	-0.023498535	
1737105105145	-0.027618408	
1737105105146	-0.030212402	
1737105105147	-0.025482178	
1737105105148	-0.012664795	
1737105105149	-0.018463135	
1737105105150	-0.017471313	
1737105105151	-0.0048065186	
1737105105152	0.0012969971	
1737105105153	7.6293945E-5	
1737105105154	-0.0024414062	
1737105105155	-0.0076293945	
1737105105156	0.008163452	
1737105105157	0.012130737	
1737105105158	0.009613037	
1737105105159	0.016860962	
1737105105160	0.016937256	
1737105105161	0.016021729	
1737105105162	0.01373291	
1737105105163	0.0090789795	
1737105105164	-1.5258789E-4	
1737105105165	0.0035095215	
1737105105166	0.0037384033	
1737105105167	0.0021362305	
1737105105168	-0.0038909912	
1737105105169	-0.009613037	
1737105105170	-0.008468628	
1737105105171	-0.011444092	
1737105105172	-0.018615723	
1737105105173	-0.022354126	
1737105105174	-0.014190674	
1737105105175	-0.011749268	
1737105105176	-0.011520386	
1737105105177	-0.013580322	
1737105105178	-0.010604858	
1737105105179	-0.0051116943	
1737105105180	-0.0065612793	
1737105105181	0.0050354004	
1737105105182	0.018081665	
1737105105183	0.017623901	
1737105105184	0.02029419	
1737105105185	0.030212402	
1737105105186	0.029144287	
1737105105187	0.022125244	
1737105105188	0.025405884	
1737105105189	0.02281189	
1737105105190	0.016784668	
1737105105191	0.020904541	
1737105105192	0.023651123	
1737105105193	0.011672974	
1737105105194	-0.0025939941	
1737105105195	-0.0036621094	
1737105105196	-0.016708374	
1737105105197	-0.022964478	
1737105105198	-0.018539429	
1737105105199	-0.017852783	
1737105105200	-0.012741089	
1737105105201	-0.025024414	
1737105105202	-0.0289917	
1737105105203	-0.022659302	
1737105105204	-0.028076172	
1737105105205	-0.026397705	
1737105105206	-0.019989014	
1737105105207	-0.009918213	
1737105105208	-0.0063323975	
1737105105209	-0.0065612793	
1737105105210	0.007095337	
1737105105211	0.009155273	
1737105105212	0.008163452	
1737105105213	0.0119018555	
1737105105214	0.013656616	
1737105105215	0.016555786	
1737105105216	0.012817383	
1737105105217	0.008850098	
1737105105218	0.012435913	
1737105105219	0.0012207031	
1737105105220	-3.8146973E-4	
1737105105221	0.0020599365	
1737105105222	7.6293945E-5	
1737105105223	0.00831604	
1737105105224	0.018310547	
1737105105225	0.025100708	
1737105105226	0.027618408	
1737105105227	0.021438599	
1737105105228	0.011444092	
1737105105229	0.0034332275	
1737105105230	0.0023651123	
1737105105231	0.001449585	
1737105105232	-0.0010681152	
1737105105233	5.340576E-4	
1737105105234	-0.0064849854	
1737105105235	-0.0015258789	
1737105105236	-0.008926392	
1737105105237	-0.017166138	
1737105105238	-0.011978149	
1737105105239	-0.013885498	
1737105105240	-0.0032043457	
1737105105241	-0.008087158	
1737105105242	-0.0059509277	
1737105105243	-0.0035858154	
1737105105244	-0.012664795	
1737105105245	-0.018539429	
1737105105246	-0.02670288	
1737105105247	-0.031585693	
1737105105248	-0.02998352	
1737105105249	-0.025863647	
1737105105250	-0.021820068	
1737105105251	-0.019683838	
1737105105252	-0.015792847	
1737105105253	-0.011978149	
1737105105254	-0.0046539307	
1737105105255	0.0020599365	
1737105105256	-0.0011444092	
1737105105257	0.004501343	
1737105105258	0.0035858154	
1737105105259	0.0030517578	
1737105105260	0.015106201	
1737105105261	0.016860962	
1737105105262	0.020446777	
1737105105263	0.02708435	
1737105105264	0.02571106	
1737105105265	0.03036499	
1737105105266	0.032043457	
1737105105267	0.027236938	
1737105105268	0.027389526	
1737105105269	0.029678345	
1737105105270	0.030059814	
1737105105271	0.027770996	
1737105105272	0.023727417	
1737105105273	0.027542114	
1737105105274	0.025177002	
1737105105275	0.01739502	
1737105105276	0.0146484375	
1737105105277	0.0090789795	
1737105105278	0.0050354004	
1737105105279	-0.0062561035	
1737105105280	-0.014266968	
1737105105281	-0.012435913	
1737105105282	-0.019836426	
1737105105283	-0.028762817	
1737105105284	-0.030975342	
1737105105285	-0.035476685	
1737105105286	-0.039367676	
1737105105287	-0.042114258	
1737105105288	-0.038757324	
1737105105289	-0.034332275	
1737105105290	-0.03501892	
1737105105291	-0.03112793	
1737105105292	-0.027313232	
1737105105293	-0.025558472	
1737105105294	-0.015335083	
1737105105295	-0.0032806396	
1737105105296	6.1035156E-4	
1737105105297	-0.0017547607	
1737105105298	-0.0022125244	
1737105105299	0.0024414062	
1737105105300	0.0077819824	
1737105105301	0.009613037	
1737105105302	0.0104522705	
1737105105303	0.0132751465	
1737105105304	0.023040771	
1737105105305	0.035858154	
1737105105306	0.037765503	
1737105105307	0.048217773	
1737105105308	0.064468384	
1737105105309	0.06477356	
1737105105310	0.06484985	
1737105105311	0.06538391	
1737105105312	0.076293945	
1737105105313	0.075912476	
1737105105314	0.0617218	
1737105105315	0.049362183	
1737105105316	0.026550293	
1737105105317	0.010223389	
1737105105318	-0.010986328	
1737105105319	-0.028457642	
1737105105320	-0.041122437	
1737105105321	-0.06340027	
1737105105322	-0.079193115	
1737105105323	-0.09124756	
1737105105324	-0.09529114	
1737105105325	-0.08911133	
1737105105326	-0.08773804	
1737105105327	-0.08888245	
1737105105328	-0.08049011	
1737105105329	-0.06568909	
1737105105330	-0.054626465	
1737105105331	-0.03677368	
1737105105332	-0.021591187	
1737105105333	-0.012664795	
1737105105334	0.0010681152	
1737105105335	0.010375977	
1737105105336	0.010681152	
1737105105337	0.026855469	
1737105105338	0.031814575	
1737105105339	0.03540039	
1737105105340	0.04951477	
1737105105341	0.040512085	
1737105105342	0.045166016	
1737105105343	0.033798218	
1737105105344	0.027923584	
1737105105345	0.020523071	
1737105105346	0.006866455	
1737105105347	0.002822876	
1737105105348	-0.0051879883	
1737105105349	-0.009918213	
1737105105350	-9.1552734E-4	
1737105105351	-0.0047302246	
1737105105352	-0.0012207031	
1737105105353	0.0022888184	
1737105105354	0.005874634	
1737105105355	0.006942749	
1737105105356	0.013198853	
1737105105357	0.029144287	
1737105105358	0.030517578	
1737105105359	0.029678345	
1737105105360	0.037078857	
1737105105361	0.04676819	
1737105105362	0.04119873	
1737105105363	0.04020691	
1737105105364	0.03578186	
1737105105365	0.019683838	
1737105105366	0.006790161	
1737105105367	-0.01449585	
1737105105368	-0.024642944	
1737105105369	-0.031585693	
1737105105370	-0.03517151	
1737105105371	-0.03715515	
1737105105372	-0.04737854	
1737105105373	-0.05340576	
1737105105374	-0.03692627	
1737105105375	-0.013427734	
1737105105376	-0.008544922	
1737105105377	0.0075531006	
1737105105378	0.030212402	
1737105105379	0.035476685	
1737105105380	0.032348633	
1737105105381	0.034332275	
1737105105382	0.037231445	
1737105105383	0.03303528	
1737105105384	0.032730103	
1737105105385	0.025558472	
1737105105386	0.022659302	
1737105105387	0.022964478	
1737105105388	0.018539429	
1737105105389	0.0065612793	
1737105105390	-0.006713867	
1737105105391	-0.014266968	
1737105105392	-0.02822876	
1737105105393	-0.037765503	
1737105105394	-0.031433105	
1737105105395	-0.023651123	
1737105105396	-0.029449463	
1737105105397	-0.03036499	
1737105105398	-0.028305054	
1737105105399	-0.036392212	
1737105105400	-0.038909912	
1737105105401	-0.03982544	
1737105105402	-0.03730774	
1737105105403	-0.024490356	
1737105105404	-0.025253296	
1737105105405	-0.023956299	
1737105105406	-0.012969971	
1737105105407	-0.01411438	
1737105105408	-0.0064086914	
1737105105409	-0.0050354004	
1737105105410	-0.014572144	
1737105105411	-0.013656616	
1737105105412	-0.019302368	
1737105105413	-0.023803711	
1737105105414	-0.019683838	
1737105105415	-0.019378662	
1737105105416	-0.017242432	
1737105105417	-0.008773804	
1737105105418	-0.007858276	
1737105105419	-0.0073242188	
1737105105420	-0.0074768066	
1737105105421	6.1035156E-4	
1737105105422	0.008468628	
1737105105423	0.008392334	
1737105105424	0.008773804	
1737105105425	-0.0030517578	
1737105105426	0.0018310547	
1737105105427	0.015029907	
1737105105428	0.02532959	
1737105105429	0.05088806	
1737105105430	0.08644104	
1737105105431	0.11329651	
1737105105432	0.124435425	
1737105105433	0.13694763	
1737105105434	0.13458252	
1737105105435	0.12870789	
1737105105436	0.12176514	
1737105105437	0.109939575	
1737105105438	0.09162903	
1737105105439	0.054092407	
1737105105440	0.019454956	
1737105105441	-0.015487671	
1737105105442	-0.03807068	
1737105105443	-0.052719116	
1737105105444	-0.05859375	
1737105105445	-0.059661865	
1737105105446	-0.06942749	
1737105105447	-0.0856781	
1737105105448	-0.100479126	
1737105105449	-0.10971069	
1737105105450	-0.102767944	
1737105105451	-0.09063721	
1737105105452	-0.07575989	
1737105105453	-0.055236816	
1737105105454	-0.048980713	
1737105105455	-0.044021606	
1737105105456	-0.034942627	
1737105105457	-0.030822754	
1737105105458	-0.029907227	
1737105105459	-0.040512085	
1737105105460	-0.051727295	
1737105105461	-0.06271362	
1737105105462	-0.058288574	
1737105105463	-0.060272217	
1737105105464	-0.06958008	
1737105105465	-0.054092407	
1737105105466	-0.03578186	
1737105105467	-0.028381348	
1737105105468	-0.008621216	
1737105105469	-1.5258789E-4	
1737105105470	0.020828247	
1737105105471	0.04310608	
1737105105472	0.055236816	
1737105105473	0.07347107	
1737105105474	0.07965088	
1737105105475	0.08720398	
1737105105476	0.08178711	
1737105105477	0.06896973	
1737105105478	0.06652832	
1737105105479	0.062332153	
1737105105480	0.06484985	
1737105105481	0.0693512	
1737105105482	0.07324219	
1737105105483	0.0818634	
1737105105484	0.08987427	
1737105105485	0.100250244	
1737105105486	0.09979248	
1737105105487	0.094680786	
1737105105488	0.09048462	
1737105105489	0.07446289	
1737105105490	0.05744934	
1737105105491	0.04348755	
1737105105492	0.027236938	
1737105105493	0.005340576	
1737105105494	-0.028762817	
1737105105495	-0.072784424	
1737105105496	-0.09719849	
1737105105497	-0.10520935	
1737105105498	-0.11878967	
1737105105499	-0.120010376	
1737105105500	-0.112838745	
1737105105501	-0.10032654	
1737105105502	-0.076293945	
1737105105503	-0.07835388	
1737105105504	-0.059051514	
1737105105505	-0.04058838	
1737105105506	-0.04234314	
1737105105507	-0.02456665	
1737105105508	-0.03501892	
1737105105509	-0.048294067	
1737105105510	-0.06111145	
1737105105511	-0.07110596	
1737105105512	-0.082473755	
1737105105513	-0.08850098	
1737105105514	-0.08583069	
1737105105515	-0.080566406	
1737105105516	-0.06561279	
1737105105517	-0.05378723	
1737105105518	-0.020523071	
1737105105519	0.0062561035	
1737105105520	0.032730103	
1737105105521	0.08018494	
1737105105522	0.10681152	
1737105105523	0.13313293	
1737105105524	0.13206482	
1737105105525	0.11680603	
1737105105526	0.13580322	
1737105105527	0.11413574	
1737105105528	0.0894928	
1737105105529	0.0907135	
1737105105530	0.08598328	
1737105105531	0.084609985	
1737105105532	0.09132385	
1737105105533	0.104141235	
1737105105534	0.11268616	
1737105105535	0.093307495	
1737105105536	0.06515503	
1737105105537	0.052719116	
1737105105538	0.01914978	
1737105105539	-0.016708374	
1737105105540	-0.034179688	
1737105105541	-0.05241394	
1737105105542	-0.07469177	
1737105105543	-0.10292053	
1737105105544	-0.11741638	
1737105105545	-0.11604309	
1737105105546	-0.12756348	
1737105105547	-0.1296997	
1737105105548	-0.120773315	
1737105105549	-0.11543274	
1737105105550	-0.09437561	
1737105105551	-0.08483887	
1737105105552	-0.08041382	
1737105105553	-0.059127808	
1737105105554	-0.04135132	
1737105105555	-0.023727417	
1737105105556	0.0051879883	
1737105105557	0.021438599	
1737105105558	0.03501892	
1737105105559	0.051193237	
1737105105560	0.057907104	
1737105105561	0.072021484	
1737105105562	0.07751465	
1737105105563	0.07904053	
1737105105564	0.07873535	
1737105105565	0.07652283	
1737105105566	0.07522583	
1737105105567	0.0680542	
1737105105568	0.05393982	
1737105105569	0.04295349	
1737105105570	0.03288269	
1737105105571	0.019683838	
1737105105572	0.01373291	
1737105105573	-0.0023651123	
1737105105574	-0.018463135	
1737105105575	-0.04081726	
1737105105576	-0.06645203	
1737105105577	-0.060806274	
1737105105578	-0.05455017	
1737105105579	-0.058898926	
1737105105580	-0.059127808	
1737105105581	-0.056152344	
1737105105582	-0.05256653	
1737105105583	-0.05897522	
1737105105584	-0.05531311	
1737105105585	-0.043182373	
1737105105586	-0.039978027	
1737105105587	-0.02319336	
1737105105588	-0.026245117	
1737105105589	-0.0011444092	
1737105105590	0.027389526	
1737105105591	0.026245117	
1737105105592	0.043182373	
1737105105593	0.042037964	
1737105105594	0.03501892	
1737105105595	0.059280396	
1737105105596	0.08735657	
1737105105597	0.099868774	
1737105105598	0.084991455	
1737105105599	0.072021484	
1737105105600	0.04699707	
1737105105601	0.03036499	
1737105105602	0.057754517	
1737105105603	0.056228638	
1737105105604	0.040512085	
1737105105605	0.03540039	
1737105105606	0.013427734	
1737105105607	-0.01838684	
1737105105608	-0.042114258	
1737105105609	-0.030517578	
1737105105610	-0.018615723	
1737105105611	-0.02571106	
1737105105612	-0.027694702	
1737105105613	-0.045394897	
1737105105614	-0.05317688	
1737105105615	-0.06851196	
1737105105616	-0.08262634	
1737105105617	-0.07095337	
1737105105618	-0.061950684	
1737105105619	-0.03845215	
1737105105620	-0.022354126	
1737105105621	-0.013427734	
1737105105622	-0.007019043	
1737105105623	-0.0033569336	
1737105105624	0.0051116943	
1737105105625	-0.008392334	
1737105105626	-0.0066375732	
1737105105627	0.013885498	
1737105105628	0.023422241	
1737105105629	0.012664795	
1737105105630	0.010604858	
1737105105631	0.019378662	
1737105105632	0.013046265	
1737105105633	-0.02029419	
1737105105634	-0.036087036	
1737105105635	-0.014877319	
1737105105636	0.013885498	
1737105105637	0.018234253	
1737105105638	0.016555786	
1737105105639	0.01083374	
1737105105640	0.0033569336	
1737105105641	0.018539429	
1737105105642	0.028457642	
1737105105643	0.030899048	
1737105105644	0.033798218	
1737105105645	0.037384033	
1737105105646	0.031661987	
1737105105647	0.01625061	
1737105105648	0.013885498	
1737105105649	-0.015563965	
1737105105650	-0.051193237	
1737105105651	-0.0390625	
1737105105652	0.0034332275	
1737105105653	0.033493042	
1737105105654	0.02746582	
1737105105655	0.0066375732	
1737105105656	0.0045776367	
1737105105657	0.021209717	
1737105105658	0.023880005	
1737105105659	0.0061035156	
1737105105660	-6.1035156E-4	
1737105105661	-0.0029754639	
1737105105662	-0.009918213	
1737105105663	-0.0024414062	
1737105105664	0.01625061	
1737105105665	0.029907227	
1737105105666	0.013961792	
1737105105667	-0.019836426	
1737105105668	-0.044555664	
1737105105669	-0.043029785	
1737105105670	-0.05630493	
1737105105671	-0.07598877	
1737105105672	-0.026931763	
1737105105673	0.0064849854	
1737105105674	-0.004501343	
1737105105675	0.007019043	
1737105105676	0.013961792	
1737105105677	0.011672974	
1737105105678	0.01373291	
1737105105679	0.021057129	
1737105105680	0.0132751465	
1737105105681	-0.0022888184	
1737105105682	-0.0062561035	
1737105105683	-0.010147095	
1737105105684	0.020751953	
1737105105685	0.052490234	
1737105105686	0.051956177	
1737105105687	0.044555664	
1737105105688	0.023422241	
1737105105689	0.019226074	
1737105105690	0.007858276	
1737105105691	-0.02532959	
1737105105692	-0.034103394	
1737105105693	-0.062026978	
1737105105694	-0.07003784	
1737105105695	-0.019836426	
1737105105696	-8.392334E-4	
1737105105697	-0.0010681152	
1737105105698	-5.340576E-4	
1737105105699	-0.0037384033	
1737105105700	0.009841919	
1737105105701	0.0066375732	
1737105105702	-0.005645752	
1737105105703	0.0025939941	
1737105105704	0.010604858	
1737105105705	0.011062622	
1737105105706	-0.0021362305	
1737105105707	-0.010910034	
1737105105708	-0.011520386	
1737105105709	-0.028381348	
1737105105710	-0.018997192	
1737105105711	0.010375977	
1737105105712	0.01083374	
1737105105713	0.011367798	
1737105105714	0.025100708	
1737105105715	0.024032593	
1737105105716	0.022201538	
1737105105717	0.036010742	
1737105105718	0.019226074	
1737105105719	-0.010681152	
1737105105720	9.1552734E-4	
1737105105721	0.015335083	
1737105105722	0.010986328	
1737105105723	0.009841919	
1737105105724	0.012664795	
1737105105725	-0.033187866	
1737105105726	-0.0856781	
1737105105727	-0.05821228	
1737105105728	-0.02243042	
1737105105729	0.0011444092	
1737105105730	0.03616333	
1737105105731	0.0119018555	
1737105105732	-0.020523071	
1737105105733	-0.0061798096	
1737105105734	0.012512207	
1737105105735	0.01586914	
1737105105736	0.0010681152	
1737105105737	6.866455E-4	
1737105105738	0.0029754639	
1737105105739	-0.013580322	
1737105105740	-0.02746582	
1737105105741	-0.0074768066	
1737105105742	0.025253296	
1737105105743	0.016174316	
1737105105744	-3.8146973E-4	
1737105105745	0.03265381	
1737105105746	0.053482056	
1737105105747	0.03517151	
1737105105748	0.020904541	
1737105105749	0.0038146973	
1737105105750	0.015487671	
1737105105751	0.039138794	
1737105105752	0.0064849854	
1737105105753	-0.015640259	
1737105105754	0.01335144	
1737105105755	0.012435913	
1737105105756	-0.016860962	
1737105105757	-0.03135681	
1737105105758	-0.035247803	
1737105105759	-0.03967285	
1737105105760	-0.06439209	
1737105105761	-0.045547485	
1737105105762	0.0035095215	
1737105105763	0.012054443	
1737105105764	0.013580322	
1737105105765	0.02456665	
1737105105766	0.028305054	
1737105105767	0.022277832	
1737105105768	0.009994507	
1737105105769	-0.005493164	
1737105105770	-0.0289917	
1737105105771	-0.053863525	
1737105105772	-0.05050659	
1737105105773	-0.036849976	
1737105105774	-0.023117065	
1737105105775	0.012741089	
1737105105776	0.022201538	
1737105105777	0.016784668	
1737105105778	0.018005371	
1737105105779	0.004348755	
1737105105780	-0.0046539307	
1737105105781	-0.0090789795	
1737105105782	0.010910034	
1737105105783	0.033111572	
1737105105784	0.027160645	
1737105105785	0.024719238	
1737105105786	0.01625061	
1737105105787	0.029067993	
1737105105788	0.06713867	
1737105105789	0.07095337	
1737105105790	0.03829956	
1737105105791	-0.005722046	
1737105105792	-0.024261475	
1737105105793	-0.016555786	
1737105105794	-0.015258789	
1737105105795	-0.020217896	
1737105105796	-0.03616333	
1737105105797	-0.023651123	
1737105105798	0.008544922	
1737105105799	0.02319336	
1737105105800	0.016021729	
1737105105801	-0.036315918	
1737105105802	-0.06774902	
1737105105803	-0.05760193	
1737105105804	-0.030670166	
1737105105805	-7.6293945E-4	
1737105105806	-0.0032806396	
1737105105807	-0.02166748	
1737105105808	-0.0061798096	
1737105105809	0.008087158	
1737105105810	-0.0065612793	
1737105105811	-0.016403198	
1737105105812	-0.008392334	
1737105105813	0.0046539307	
1737105105814	0.030899048	
1737105105815	0.062026978	
1737105105816	0.06278992	
1737105105817	0.016937256	
1737105105818	0.0061798096	
1737105105819	0.013122559	
1737105105820	-0.017547607	
1737105105821	-0.034103394	
1737105105822	-0.030288696	
1737105105823	-0.04600525	
1737105105824	-0.041885376	
1737105105825	-0.011062622	
1737105105826	-0.013656616	
1737105105827	-0.02357483	
1737105105828	0.00289917	
1737105105829	0.032196045	
1737105105830	0.02670288	
1737105105831	0.015945435	
1737105105832	-0.008773804	
1737105105833	-0.025863647	
1737105105834	0.025482178	
1737105105835	0.0592041	
1737105105836	0.05203247	
1737105105837	0.052947998	
1737105105838	0.031661987	
1737105105839	-0.0035858154	
1737105105840	-0.02670288	
1737105105841	-0.028762817	
1737105105842	-0.02029419	
1737105105843	0.0025939941	
1737105105844	0.021057129	
1737105105845	0.008926392	
1737105105846	-7.6293945E-5	
1737105105847	-0.012130737	
1737105105848	-0.016784668	
1737105105849	0.016784668	
1737105105850	0.036621094	
1737105105851	0.033111572	
1737105105852	0.022277832	
1737105105853	-0.008239746	
1737105105854	-0.030593872	
1737105105855	-0.041732788	
1737105105856	-0.05744934	
1737105105857	-0.03616333	
1737105105858	0.009231567	
1737105105859	0.011978149	
1737105105860	0.02204895	
1737105105861	0.049743652	
1737105105862	0.045013428	
1737105105863	0.010147095	
1737105105864	-0.042419434	
1737105105865	-0.07064819	
1737105105866	-0.06278992	
1737105105867	-0.039367676	
1737105105868	-0.012130737	
1737105105869	-0.0010681152	
1737105105870	-0.0020599365	
1737105105871	0.027389526	
1737105105872	0.069122314	
1737105105873	0.044631958	
1737105105874	-0.0038146973	
1737105105875	-0.01739502	
1737105105876	-0.005493164	
1737105105877	0.061035156	
1737105105878	0.058670044	
1737105105879	-0.0466156	
1737105105880	-0.06500244	
1737105105881	-0.032958984	
1737105105882	0.005645752	
1737105105883	0.061264038	
1737105105884	0.03944397	
1737105105885	-0.017471313	
1737105105886	-0.05126953	
1737105105887	-0.0692749	
1737105105888	-0.05744934	
1737105105889	-0.026168823	
1737105105890	-0.0050354004	
1737105105891	0.011520386	
1737105105892	0.027618408	
1737105105893	0.018539429	
1737105105894	0.018539429	
1737105105895	0.04852295	
1737105105896	0.0390625	
1737105105897	-0.010910034	
1737105105898	-0.005874634	
1737105105899	0.026245117	
1737105105900	0.038909912	
1737105105901	0.042800903	
1737105105902	-0.0032806396	
1737105105903	-0.014572144	
1737105105904	0.03440857	
1737105105905	-0.001449585	
1737105105906	-0.07347107	
1737105105907	-0.05378723	
1737105105908	0.009307861	
1737105105909	0.03555298	
1737105105910	0.024337769	
1737105105911	-0.013046265	
1737105105912	-0.03173828	
1737105105913	-0.01373291	
1737105105914	0.050811768	
1737105105915	0.09147644	
1737105105916	0.029067993	
1737105105917	-0.087890625	
1737105105918	-0.19302368	
1737105105919	-0.1550293	
1737105105920	0.011291504	
1737105105921	0.05935669	
1737105105922	0.012435913	
1737105105923	-0.035476685	
1737105105924	-0.13259888	
1737105105925	-0.12008667	
1737105105926	2.2888184E-4	
1737105105927	0.08628845	
1737105105928	0.18081665	
1737105105929	0.20851135	
1737105105930	0.12237549	
1737105105931	0.07476807	
1737105105932	0.07675171	
1737105105933	0.016403198	
1737105105934	-0.052947998	
1737105105935	-0.053710938	
1737105105936	-0.008010864	
1737105105937	0.037841797	
1737105105938	0.022888184	
1737105105939	0.00579834	
1737105105940	3.0517578E-4	
1737105105941	-0.033950806	
1737105105942	-0.04524231	
1737105105943	-0.048675537	
1737105105944	-0.058059692	
1737105105945	-0.031280518	
1737105105946	-0.007171631	
1737105105947	-0.006942749	
1737105105948	-0.00541687	
1737105105949	0.0046539307	
1737105105950	0.009765625	
1737105105951	-0.029067993	
1737105105952	-0.038604736	
1737105105953	0.026855469	
1737105105954	0.051116943	
1737105105955	0.016784668	
1737105105956	-0.001449585	
1737105105957	-0.027160645	
1737105105958	-0.05470276	
1737105105959	-0.03929138	
1737105105960	-0.02998352	
1737105105961	-0.029525757	
1737105105962	-0.0132751465	
1737105105963	0.0049591064	
1737105105964	0.026321411	
1737105105965	0.03593445	
1737105105966	0.026168823	
1737105105967	-0.00541687	
1737105105968	-0.029830933	
1737105105969	-0.029144287	
1737105105970	-0.021209717	
1737105105971	-0.009460449	
1737105105972	-0.012588501	
1737105105973	-0.009536743	
1737105105974	0.026473999	
1737105105975	0.033798218	
1737105105976	-0.003967285	
1737105105977	-0.0062561035	
1737105105978	0.03112793	
1737105105979	0.046310425	
1737105105980	0.014190674	
1737105105981	0.0061035156	
1737105105982	0.03288269	
1737105105983	0.031814575	
1737105105984	0.035476685	
1737105105985	0.04081726	
1737105105986	0.02861023	
1737105105987	0.016021729	
1737105105988	0.009689331	
1737105105989	0.004272461	
1737105105990	-0.012817383	
1737105105991	-0.015792847	
1737105105992	-0.032958984	
1737105105993	-0.057296753	
1737105105994	-0.0017547607	
1737105105995	0.04234314	
1737105105996	-0.0031280518	
1737105105997	-0.01625061	
1737105105998	-5.340576E-4	
1737105105999	-0.014801025	
1737105106000	-0.025482178	
1737105106001	-0.045013428	
1737105106002	-0.041732788	
1737105106003	-0.019378662	
1737105106004	-0.0038909912	
1737105106005	0.013046265	
1737105106006	0.0022888184	
1737105106007	-0.0119018555	
1737105106008	-0.009155273	
1737105106009	7.6293945E-5	
1737105106010	0.017166138	
1737105106011	0.015945435	
1737105106012	0.0062561035	
1737105106013	0.011138916	
1737105106014	0.005493164	
1737105106015	0.0022125244	
1737105106016	0.0024414062	
1737105106017	-0.006866455	
1737105106018	-7.6293945E-4	
1737105106019	0.008544922	
1737105106020	0.012207031	
1737105106021	0.0076293945	
1737105106022	-0.0035858154	
1737105106023	-3.0517578E-4	
1737105106024	-0.0012969971	
1737105106025	-0.008010864	
1737105106026	-0.0064086914	
1737105106027	-4.5776367E-4	
1737105106028	0.00579834	
1737105106029	0.0046539307	
1737105106030	0.0015258789	
1737105106031	-0.012969971	
1737105106032	-0.026855469	
1737105106033	-0.014877319	
1737105106034	-0.005569458	
1737105106035	0.0019073486	
1737105106036	0.016708374	
1737105106037	0.014343262	
1737105106038	0.012435913	
1737105106039	0.0119018555	
1737105106040	0.0018310547	
1737105106041	-4.5776367E-4	
1737105106042	0.0025177002	
1737105106043	0.007095337	
1737105106044	0.0048828125	
1737105106045	0.0015258789	
1737105106046	0.0061798096	
1737105106047	0.001373291	
1737105106048	-0.0032043457	
1737105106049	-0.0029754639	
1737105106050	0.001449585	
1737105106051	0.0049591064	
1737105106052	-4.5776367E-4	
1737105106053	0.0020599365	
1737105106054	0.0046539307	
1737105106055	5.340576E-4	
1737105106056	0.0011444092	
1737105106057	0.001373291	
1737105106058	-0.0048828125	
1737105106059	-0.0050354004	
1737105106060	-0.0023651123	
1737105106061	-0.006942749	
1737105106062	-0.009918213	
1737105106063	-0.0074768066	
1737105106064	-0.0048065186	
1737105106065	-0.0012969971	
1737105106066	-7.6293945E-5	
1737105106067	-0.0024414062	
1737105106068	-0.0032043457	
1737105106069	-0.004501343	
1737105106070	-0.001373291	
1737105106071	0.005645752	
1737105106072	0.0060272217	
1737105106073	0.0029754639	
1737105106074	0.0018310547	
1737105106075	0.0024414062	
1737105106076	0.004272461	
1737105106077	0.0034332275	
1737105106078	-0.0015258789	
1737105106079	-1.5258789E-4	
1737105106080	0.0016021729	
1737105106081	-0.007247925	
1737105106082	-0.0077056885	
1737105106083	-0.0104522705	
1737105106084	-0.022964478	
1737105106085	-0.021743774	
1737105106086	-0.013656616	
1737105106087	-0.008468628	
1737105106088	-0.0011444092	
1737105106089	0.01121521	
1737105106090	0.019302368	
1737105106091	0.019378662	
1737105106092	0.021820068	
1737105106093	0.020751953	
1737105106094	0.016174316	
1737105106095	0.008392334	
1737105106096	-0.0012207031	
1737105106097	-0.0037384033	
1737105106098	-0.0030517578	
1737105106099	-0.0031280518	
1737105106100	-0.0032043457	
1737105106101	-0.0035858154	
1737105106102	-0.0048065186	
1737105106103	-3.8146973E-4	
1737105106104	5.340576E-4	
1737105106105	-5.340576E-4	
1737105106106	-0.013198853	
1737105106107	-0.020217896	
1737105106108	-0.014572144	
1737105106109	-0.01663208	
1737105106110	-0.008850098	
1737105106111	-0.0051879883	
1737105106112	-0.0074005127	
1737105106113	-0.005645752	
1737105106114	-0.010147095	
1737105106115	-0.005493164	
1737105106116	-0.010604858	
1737105106117	-0.0061798096	
1737105106118	0.008010864	
1737105106119	0.0118255615	
1737105106120	0.014724731	
1737105106121	0.022201538	
1737105106122	0.022201538	
1737105106123	0.01991272	
1737105106124	0.021820068	
1737105106125	0.028762817	
1737105106126	0.03135681	
1737105106127	0.03036499	
1737105106128	0.036087036	
1737105106129	0.040740967	
1737105106130	0.038146973	
1737105106131	0.023269653	
1737105106132	0.013656616	
1737105106133	0.0132751465	
1737105106134	0.0064086914	
1737105106135	-0.0022888184	
1737105106136	-0.008010864	
1737105106137	-0.008010864	
1737105106138	-0.016555786	
1737105106139	-0.023880005	
1737105106140	-0.02861023	
1737105106141	-0.023651123	
1737105106142	-0.034179688	
1737105106143	-0.041503906	
1737105106144	-0.03501892	
1737105106145	-0.036468506	
1737105106146	-0.03540039	
1737105106147	-0.0365448	
1737105106148	-0.036087036	
1737105106149	-0.037231445	
1737105106150	-0.040130615	
1737105106151	-0.03807068	
1737105106152	-0.03715515	
1737105106153	-0.032196045	
1737105106154	-0.01914978	
1737105106155	-0.0073242188	
1737105106156	-3.8146973E-4	
1737105106157	0.00793457	
1737105106158	0.01701355	
1737105106159	0.024108887	
1737105106160	0.028839111	
1737105106161	0.032730103	
1737105106162	0.03479004	
1737105106163	0.038909912	
1737105106164	0.045394897	
1737105106165	0.050125122	
1737105106166	0.045318604	
1737105106167	0.043258667	
1737105106168	0.033950806	
1737105106169	0.03265381	
1737105106170	0.031433105	
1737105106171	0.017166138	
1737105106172	0.0038909912	
1737105106173	-0.0012207031	
1737105106174	-0.010986328	
1737105106175	-0.017623901	
1737105106176	-0.0146484375	
1737105106177	-0.02494812	
1737105106178	-0.02861023	
1737105106179	-0.026550293	
1737105106180	-0.033340454	
1737105106181	-0.03303528	
1737105106182	-0.012207031	
1737105106183	-0.008392334	
1737105106184	5.340576E-4	
1737105106185	-0.0062561035	
1737105106186	-0.0024414062	
1737105106187	0.0025939941	
1737105106188	-4.5776367E-4	
1737105106189	0.017547607	
1737105106190	0.013885498	
1737105106191	0.021820068	
1737105106192	0.012207031	
1737105106193	-0.0010681152	
1737105106194	0.01449585	
1737105106195	0.004348755	
1737105106196	0.010910034	
1737105106197	0.0090789795	
1737105106198	0.009994507	
1737105106199	0.0074005127	
1737105106200	-0.0022125244	
1737105106201	-0.003967285	
1737105106202	-0.013656616	
1737105106203	-0.018157959	
1737105106204	-0.02029419	
1737105106205	-0.020980835	
1737105106206	-0.012969971	
1737105106207	-0.014038086	
1737105106208	-0.018081665	
1737105106209	-0.018539429	
1737105106210	-0.02166748	
1737105106211	-0.0075531006	
1737105106212	-0.0074005127	
1737105106213	-0.005493164	
1737105106214	0.014190674	
1737105106215	0.012664795	
1737105106216	0.024795532	
1737105106217	0.02746582	
1737105106218	0.02494812	
1737105106219	0.022277832	
1737105106220	0.010070801	
1737105106221	0.011672974	
1737105106222	0.013504028	
1737105106223	0.013046265	
1737105106224	0.012435913	
1737105106225	0.012664795	
1737105106226	0.016708374	
1737105106227	0.017547607	
1737105106228	0.013198853	
1737105106229	0.015487671	
1737105106230	0.0119018555	
1737105106231	-0.004425049	
1737105106232	-0.014419556	
1737105106233	-0.01991272	
1737105106234	-0.023269653	
1737105106235	-0.029373169	
1737105106236	-0.03440857	
1737105106237	-0.02822876	
1737105106238	-0.02418518	
1737105106239	-0.017929077	
1737105106240	-0.015335083	
1737105106241	-0.0062561035	
1737105106242	0.0020599365	
1737105106243	0.0032043457	
1737105106244	-0.0020599365	
1737105106245	-0.007171631	
1737105106246	-0.0038146973	
1737105106247	-0.0090789795	
1737105106248	-0.016021729	
1737105106249	-0.013504028	
1737105106250	-0.009765625	
1737105106251	-0.017929077	
1737105106252	-0.017852783	
1737105106253	-0.0074768066	
1737105106254	0.0025939941	
1737105106255	0.018005371	
1737105106256	0.02319336	
1737105106257	0.032043457	
1737105106258	0.04081726	
1737105106259	0.046691895	
1737105106260	0.052337646	
1737105106261	0.052490234	
1737105106262	0.047531128	
1737105106263	0.03807068	
1737105106264	0.02861023	
1737105106265	0.02571106	
1737105106266	0.021743774	
1737105106267	0.008926392	
1737105106268	7.6293945E-4	
1737105106269	-0.008163452	
1737105106270	-0.022506714	
1737105106271	-0.029144287	
1737105106272	-0.023422241	
1737105106273	-0.025558472	
1737105106274	-0.028915405	
1737105106275	-0.025177002	
1737105106276	-0.024795532	
1737105106277	-0.029144287	
1737105106278	-0.033416748	
1737105106279	-0.029830933	
1737105106280	-0.038223267	
1737105106281	-0.03868103	
1737105106282	-0.027542114	
1737105106283	-0.040740967	
1737105106284	-0.036621094	
1737105106285	-0.029907227	
1737105106286	-0.035095215	
1737105106287	-0.025253296	
1737105106288	-0.019607544	
1737105106289	-0.015335083	
1737105106290	-0.008239746	
1737105106291	-0.0018310547	
1737105106292	0.007095337	
1737105106293	0.0074005127	
1737105106294	0.0077819824	
1737105106295	0.028076172	
1737105106296	0.02670288	
1737105106297	0.029678345	
1737105106298	0.040283203	
1737105106299	0.03715515	
1737105106300	0.046157837	
1737105106301	0.040512085	
1737105106302	0.047912598	
1737105106303	0.058441162	
1737105106304	0.05760193	
1737105106305	0.06286621	
1737105106306	0.06248474	
1737105106307	0.064697266	
1737105106308	0.053100586	
1737105106309	0.039978027	
1737105106310	0.021820068	
1737105106311	0.0064086914	
1737105106312	0.0012207031	
1737105106313	-0.015106201	
1737105106314	-0.025405884	
1737105106315	-0.03692627	
1737105106316	-0.046844482	
1737105106317	-0.058135986	
1737105106318	-0.06225586	
1737105106319	-0.055847168	
1737105106320	-0.052108765	
1737105106321	-0.047683716	
1737105106322	-0.04585266	
1737105106323	-0.045013428	
1737105106324	-0.039138794	
1737105106325	-0.034484863	
1737105106326	-0.028839111	
1737105106327	-0.020751953	
1737105106328	-0.0104522705	
1737105106329	-0.0048065186	
1737105106330	-0.00541687	
1737105106331	0.0016784668	
1737105106332	0.005722046	
1737105106333	0.0018310547	
1737105106334	0.0077819824	
1737105106335	0.01838684	
1737105106336	0.020370483	
1737105106337	0.026626587	
1737105106338	0.043640137	
1737105106339	0.048980713	
1737105106340	0.050430298	
1737105106341	0.060424805	
1737105106342	0.060958862	
1737105106343	0.060195923	
1737105106344	0.055160522	
1737105106345	0.059432983	
1737105106346	0.06462097	
1737105106347	0.0554657	
1737105106348	0.04348755	
1737105106349	0.032577515	
1737105106350	0.014038086	
1737105106351	-0.009231567	
1737105106352	-0.023422241	
1737105106353	-0.041732788	
1737105106354	-0.061416626	
1737105106355	-0.068740845	
1737105106356	-0.077438354	
1737105106357	-0.08300781	
1737105106358	-0.083618164	
1737105106359	-0.08178711	
1737105106360	-0.07774353	
1737105106361	-0.07598877	
1737105106362	-0.06034851	
1737105106363	-0.05340576	
1737105106364	-0.044403076	
1737105106365	-0.025482178	
1737105106366	-0.017242432	
1737105106367	-0.0025939941	
1737105106368	0.0060272217	
1737105106369	0.02784729	
1737105106370	0.034713745	
1737105106371	0.03387451	
1737105106372	0.041656494	
1737105106373	0.039978027	
1737105106374	0.036392212	
1737105106375	0.037002563	
1737105106376	0.03036499	
1737105106377	0.026321411	
1737105106378	0.015487671	
1737105106379	0.002822876	
1737105106380	-6.866455E-4	
1737105106381	-0.009002686	
1737105106382	-0.014572144	
1737105106383	-0.013427734	
1737105106384	-0.0076293945	
1737105106385	-0.0045776367	
1737105106386	0.0035858154	
1737105106387	0.010147095	
1737105106388	0.017929077	
1737105106389	0.028533936	
1737105106390	0.039215088	
1737105106391	0.044021606	
1737105106392	0.040130615	
1737105106393	0.042877197	
1737105106394	0.037612915	
1737105106395	0.02784729	
1737105106396	0.01876831	
1737105106397	0.009765625	
1737105106398	-0.0047302246	
1737105106399	-0.012435913	
1737105106400	-0.019378662	
1737105106401	-0.028533936	
1737105106402	-0.02822876	
1737105106403	-0.027770996	
1737105106404	-0.011672974	
1737105106405	0.007095337	
1737105106406	0.009765625	
1737105106407	0.017242432	
1737105106408	0.029373169	
1737105106409	0.034942627	
1737105106410	0.034103394	
1737105106411	0.029678345	
1737105106412	0.026931763	
1737105106413	0.020828247	
1737105106414	0.012512207	
1737105106415	0.004196167	
1737105106416	-0.008926392	
1737105106417	-0.01914978	
1737105106418	-0.024719238	
1737105106419	-0.030670166	
1737105106420	-0.033187866	
1737105106421	-0.029449463	
1737105106422	-0.020751953	
1737105106423	-0.02029419	
1737105106424	-0.03112793	
1737105106425	-0.036010742	
1737105106426	-0.036239624	
1737105106427	-0.033416748	
1737105106428	-0.0315094	
1737105106429	-0.032348633	
1737105106430	-0.022506714	
1737105106431	-0.012969971	
1737105106432	-0.01838684	
1737105106433	-0.015563965	
1737105106434	-0.010223389	
1737105106435	-0.008239746	
1737105106436	-0.0025177002	
1737105106437	-0.0059509277	
1737105106438	-0.0073242188	
1737105106439	-0.0029754639	
1737105106440	0.0	
1737105106441	0.010986328	
1737105106442	0.005493164	
1737105106443	-0.008926392	
1737105106444	-0.0073242188	
1737105106445	-0.007858276	
1737105106446	-0.0077819824	
1737105106447	-0.0024414062	
1737105106448	-7.6293945E-5	
1737105106449	-0.005264282	
1737105106450	-0.01083374	
1737105106451	-0.00579834	
1737105106452	-0.009307861	
1737105106453	-0.010604858	
1737105106454	-0.005569458	
1737105106455	0.0012207031	
1737105106456	0.033187866	
1737105106457	0.070114136	
1737105106458	0.10147095	
1737105106459	0.12176514	
1737105106460	0.12756348	
1737105106461	0.13153076	
1737105106462	0.12054443	
1737105106463	0.10406494	
1737105106464	0.09048462	
1737105106465	0.075683594	
1737105106466	0.050735474	
1737105106467	0.018081665	
1737105106468	-0.005722046	
1737105106469	-0.026473999	
1737105106470	-0.04371643	
1737105106471	-0.053329468	
1737105106472	-0.061569214	
1737105106473	-0.06996155	
1737105106474	-0.07911682	
1737105106475	-0.09727478	
1737105106476	-0.10848999	
1737105106477	-0.10848999	
1737105106478	-0.11604309	
1737105106479	-0.10757446	
1737105106480	-0.083999634	
1737105106481	-0.06736755	
1737105106482	-0.054626465	
1737105106483	-0.036010742	
1737105106484	-0.01449585	
1737105106485	-0.020217896	
1737105106486	-0.01914978	
1737105106487	-0.0037384033	
1737105106488	-0.010223389	
1737105106489	-0.020523071	
1737105106490	-0.017089844	
1737105106491	-0.005340576	
1737105106492	6.1035156E-4	
1737105106493	0.00793457	
1737105106494	0.02029419	
1737105106495	0.02494812	
1737105106496	0.03250122	
1737105106497	0.020904541	
1737105106498	0.010223389	
1737105106499	0.012741089	
1737105106500	0.010757446	
1737105106501	0.02029419	
1737105106502	0.04966736	
1737105106503	0.052337646	
1737105106504	0.06340027	
1737105106505	0.07270813	
1737105106506	0.069732666	
1737105106507	0.069122314	
1737105106508	0.060043335	
1737105106509	0.064697266	
1737105106510	0.07324219	
1737105106511	0.08026123	
1737105106512	0.07423401	
1737105106513	0.07270813	
1737105106514	0.060806274	
1737105106515	0.039215088	
1737105106516	0.04257202	
1737105106517	0.031967163	
1737105106518	0.004348755	
1737105106519	-0.012054443	
1737105106520	-0.036087036	
1737105106521	-0.041427612	
1737105106522	-0.034866333	
1737105106523	-0.04951477	
1737105106524	-0.0579834	
1737105106525	-0.059814453	
1737105106526	-0.06744385	
1737105106527	-0.06034851	
1737105106528	-0.049362183	
1737105106529	-0.04295349	
1737105106530	-0.03715515	
1737105106531	-0.042037964	
1737105106532	-0.037384033	
1737105106533	-0.04043579	
1737105106534	-0.036468506	
1737105106535	-0.018157959	
1737105106536	-0.0038146973	
1737105106537	-0.001373291	
1737105106538	-0.005340576	
1737105106539	-0.010910034	
1737105106540	-0.021133423	
1737105106541	-0.011672974	
1737105106542	-0.005645752	
1737105106543	-0.02571106	
1737105106544	-0.025558472	
1737105106545	-0.03227234	
1737105106546	-0.050811768	
1737105106547	-0.05508423	
1737105106548	-0.074157715	
1737105106549	-0.059509277	
1737105106550	-0.060272217	
1737105106551	-0.037841797	
1737105106552	-0.011138916	
1737105106553	7.6293945E-4	
1737105106554	0.011749268	
1737105106555	0.015182495	
1737105106556	0.023422241	
1737105106557	0.01876831	
1737105106558	0.02243042	
1737105106559	0.030441284	
1737105106560	0.01953125	
1737105106561	0.03829956	
1737105106562	0.057144165	
1737105106563	0.08659363	
1737105106564	0.12954712	
1737105106565	0.13580322	
1737105106566	0.13717651	
1737105106567	0.10055542	
1737105106568	0.073394775	
1737105106569	0.04348755	
1737105106570	0.026397705	
1737105106571	0.042419434	
1737105106572	0.0466156	
1737105106573	0.0693512	
1737105106574	0.10765076	
1737105106575	0.08972168	
1737105106576	0.045394897	
1737105106577	0.05317688	
1737105106578	0.02998352	
1737105106579	-0.005340576	
1737105106580	-0.014877319	
1737105106581	-0.050201416	
1737105106582	-0.08201599	
1737105106583	-0.11352539	
1737105106584	-0.11764526	
1737105106585	-0.1184845	
1737105106586	-0.13641357	
1737105106587	-0.1361084	
1737105106588	-0.12878418	
1737105106589	-0.11390686	
1737105106590	-0.11077881	
1737105106591	-0.102767944	
1737105106592	-0.08277893	
1737105106593	-0.06904602	
1737105106594	-0.04600525	
1737105106595	-0.013198853	
1737105106596	-0.0048828125	
1737105106597	0.005569458	
1737105106598	0.013427734	
1737105106599	0.018539429	
1737105106600	0.029907227	
1737105106601	0.03967285	
1737105106602	0.0579834	
1737105106603	0.072021484	
1737105106604	0.09353638	
1737105106605	0.103149414	
1737105106606	0.10826111	
1737105106607	0.10932922	
1737105106608	0.10612488	
1737105106609	0.099105835	
1737105106610	0.09033203	
1737105106611	0.06500244	
1737105106612	0.025863647	
1737105106613	0.011444092	
1737105106614	-0.006866455	
1737105106615	-0.027618408	
1737105106616	-0.046539307	
1737105106617	-0.0592041	
1737105106618	-0.056228638	
1737105106619	-0.06072998	
1737105106620	-0.07171631	
1737105106621	-0.07797241	
1737105106622	-0.078125	
1737105106623	-0.08850098	
1737105106624	-0.09712219	
1737105106625	-0.08628845	
1737105106626	-0.06706238	
1737105106627	-0.05027771	
1737105106628	-0.02166748	
1737105106629	-0.0032806396	
1737105106630	0.020065308	
1737105106631	0.04890442	
1737105106632	0.05760193	
1737105106633	0.08010864	
1737105106634	0.09132385	
1737105106635	0.094833374	
1737105106636	0.10391235	
1737105106637	0.09185791	
1737105106638	0.071258545	
1737105106639	0.0667572	
1737105106640	0.05935669	
1737105106641	0.054473877	
1737105106642	0.045776367	
1737105106643	0.034484863	
1737105106644	0.026397705	
1737105106645	5.340576E-4	
1737105106646	-0.008392334	
1737105106647	-0.036697388	
1737105106648	-0.0554657	
1737105106649	-0.0655365	
1737105106650	-0.0806427	
1737105106651	-0.0818634	
1737105106652	-0.06996155	
1737105106653	-0.07118225	
1737105106654	-0.057144165	
1737105106655	-0.04272461	
1737105106656	-0.042800903	
1737105106657	-0.030822754	
1737105106658	-0.034713745	
1737105106659	-0.04508972	
1737105106660	-0.031280518	
1737105106661	-0.01159668	
1737105106662	-0.0015258789	
1737105106663	0.004272461	
1737105106664	0.016021729	
1737105106665	0.025863647	
1737105106666	0.043563843	
1737105106667	0.046310425	
1737105106668	0.059051514	
1737105106669	0.04562378	
1737105106670	0.022659302	
1737105106671	0.014266968	
1737105106672	-0.025405884	
1737105106673	-0.027694702	
1737105106674	0.009307861	
1737105106675	0.03479004	
1737105106676	0.022354126	
1737105106677	0.016555786	
1737105106678	0.04386902	
1737105106679	0.05455017	
1737105106680	0.055770874	
1737105106681	0.026550293	
1737105106682	0.010070801	
1737105106683	0.01083374	
1737105106684	-6.866455E-4	
1737105106685	-0.0035095215	
1737105106686	-0.0011444092	
1737105106687	-0.014877319	
1737105106688	-0.02166748	
1737105106689	-0.006713867	
1737105106690	-0.012283325	
1737105106691	-0.029296875	
1737105106692	-0.03616333	
1737105106693	-0.023269653	
1737105106694	-0.018844604	
1737105106695	-0.02029419	
1737105106696	-0.009384155	
1737105106697	-0.0073242188	
1737105106698	-0.01625061	
1737105106699	-0.03440857	
1737105106700	-0.0655365	
1737105106701	-0.059432983	
1737105106702	7.6293945E-5	
1737105106703	0.015945435	
1737105106704	0.028457642	
1737105106705	0.048446655	
1737105106706	0.03463745	
1737105106707	0.021896362	
1737105106708	0.013580322	
1737105106709	0.01121521	
1737105106710	0.014801025	
1737105106711	0.007858276	
1737105106712	0.01449585	
1737105106713	0.032196045	
1737105106714	0.028915405	
1737105106715	0.019302368	
1737105106716	0.013122559	
1737105106717	0.012512207	
1737105106718	0.010299683	
1737105106719	0.010986328	
1737105106720	0.020446777	
1737105106721	0.009460449	
1737105106722	0.0032043457	
1737105106723	0.0073242188	
1737105106724	-0.010147095	
1737105106725	0.001373291	
1737105106726	-6.1035156E-4	
1737105106727	-0.044708252	
1737105106728	-0.05760193	
1737105106729	-0.04447937	
1737105106730	-0.009841919	
1737105106731	-3.0517578E-4	
1737105106732	-0.024719238	
1737105106733	-0.03715515	
1737105106734	-0.022201538	
1737105106735	-0.008773804	
1737105106736	-0.01663208	
1737105106737	-0.021514893	
1737105106738	-0.041275024	
1737105106739	-0.029144287	
1737105106740	0.01625061	
1737105106741	0.05432129	
1737105106742	0.056381226	
1737105106743	0.025100708	
1737105106744	0.01449585	
1737105106745	0.021057129	
1737105106746	0.047912598	
1737105106747	0.056915283	
1737105106748	0.046920776	
1737105106749	0.03967285	
1737105106750	-0.012741089	
1737105106751	-0.0365448	
1737105106752	-0.0048828125	
1737105106753	-0.014266968	
1737105106754	-0.015563965	
1737105106755	-0.016784668	
1737105106756	-0.010147095	
1737105106757	0.012588501	
1737105106758	-5.340576E-4	
1737105106759	-0.012512207	
1737105106760	0.00289917	
1737105106761	-0.018157959	
1737105106762	-0.06187439	
1737105106763	-0.07324219	
1737105106764	-0.034484863	
1737105106765	0.0049591064	
1737105106766	-0.012588501	
1737105106767	0.005264282	
1737105106768	0.014877319	
1737105106769	0.0066375732	
1737105106770	0.033493042	
1737105106771	0.045318604	
1737105106772	0.036010742	
1737105106773	0.022277832	
1737105106774	0.004196167	
1737105106775	-0.011672974	
1737105106776	0.008010864	
1737105106777	0.026245117	
1737105106778	0.019683838	
1737105106779	0.011138916	
1737105106780	-0.0038909912	
1737105106781	-0.008010864	
1737105106782	2.2888184E-4	
1737105106783	-0.01838684	
1737105106784	-0.041809082	
1737105106785	-0.027389526	
1737105106786	0.01083374	
1737105106787	0.03211975	
1737105106788	0.009613037	
1737105106789	-0.016098022	
1737105106790	0.014038086	
1737105106791	0.024032593	
1737105106792	0.02746582	
