# OpenSignals Text File Format
# {"00:80:E1:26:A1:B0":{"sensor":["EMG"],"device name":"00:80:E1:26:A1:B0","column":["timestamp","EMG"],"sync interval":2,"time":"10:36:44","comments":"","keywords":"","device connection":"BLE00:80:E1:26:A1:B0","channels":[0],"date":"2025-02-21","mode":0,"digital IO":[],"firmware version":259,"device":"musclebanplux","position":0,"sampling rate":1000,"label":["EMG"],"resolution":[16],"special":[{}],"sleeve color":["UNKNOWN"]}}
# EndOfHeader
1740130605198	-0.013427734	
1740130605199	-0.046463013	
1740130605200	-0.052261353	
1740130605201	-0.020599365	
1740130605202	0.0047302246	
1740130605203	-0.0018310547	
1740130605204	0.0063323975	
1740130605205	9.918213E-4	
1740130605206	-0.0064849854	
1740130605207	0.006942749	
1740130605208	0.009307861	
1740130605209	0.012817383	
1740130605210	-0.0012207031	
1740130605211	-0.006713867	
1740130605212	0.015640259	
1740130605213	0.010910034	
1740130605214	6.1035156E-4	
1740130605215	0.0062561035	
1740130605216	0.0077056885	
1740130605217	0.0060272217	
1740130605218	-0.0051879883	
1740130605219	-0.0063323975	
1740130605220	0.008087158	
1740130605221	0.008392334	
1740130605222	0.020523071	
1740130605223	0.026016235	
1740130605224	-0.009231567	
1740130605225	-0.010604858	
1740130605226	0.005264282	
1740130605227	-0.010681152	
1740130605228	-0.018844604	
1740130605229	-0.035324097	
1740130605230	-0.044326782	
1740130605231	-0.01586914	
1740130605232	0.005645752	
1740130605233	0.009231567	
1740130605234	0.005722046	
1740130605235	0.0051116943	
1740130605236	0.007095337	
1740130605237	0.002670288	
1740130605238	0.0047302246	
1740130605239	0.011672974	
1740130605240	0.00869751	
1740130605241	0.0033569336	
1740130605242	-0.001373291	
1740130605243	-7.6293945E-4	
1740130605244	0.012969971	
1740130605245	0.014038086	
1740130605246	0.005874634	
1740130605247	0.0037384033	
1740130605248	0.001449585	
1740130605249	-0.0025177002	
1740130605250	-0.01914978	
1740130605251	-0.020141602	
1740130605252	-0.0025177002	
1740130605253	0.004348755	
1740130605254	0.013656616	
1740130605255	0.012741089	
1740130605256	-0.0035858154	
1740130605257	-0.0118255615	
1740130605258	-0.011138916	
1740130605259	-0.006790161	
1740130605260	0.0051879883	
1740130605261	0.012893677	
1740130605262	0.007858276	
1740130605263	0.010375977	
1740130605264	0.011291504	
1740130605265	-0.0076293945	
1740130605266	-0.028762817	
1740130605267	-0.023727417	
1740130605268	-0.007247925	
1740130605269	-0.012893677	
1740130605270	-0.005340576	
1740130605271	0.023269653	
1740130605272	0.02494812	
1740130605273	0.022888184	
1740130605274	0.008087158	
1740130605275	-0.03868103	
1740130605276	-0.032958984	
1740130605277	-0.007171631	
1740130605278	-0.008010864	
1740130605279	0.020446777	
1740130605280	0.035476685	
1740130605281	0.01914978	
1740130605282	0.01159668	
1740130605283	1.5258789E-4	
1740130605284	-0.0060272217	
1740130605285	-0.004425049	
1740130605286	-0.0090789795	
1740130605287	-9.918213E-4	
1740130605288	0.017852783	
1740130605289	0.01701355	
1740130605290	0.014419556	
1740130605291	4.5776367E-4	
1740130605292	-0.049819946	
1740130605293	-0.040664673	
1740130605294	0.007171631	
1740130605295	3.8146973E-4	
1740130605296	-0.0049591064	
1740130605297	-0.0025177002	
1740130605298	0.008850098	
1740130605299	0.025634766	
1740130605300	0.008163452	
1740130605301	-0.0012969971	
1740130605302	-0.0025939941	
1740130605303	0.0066375732	
1740130605304	0.016708374	
1740130605305	-0.015106201	
1740130605306	-0.020751953	
1740130605307	0.007019043	
1740130605308	9.918213E-4	
1740130605309	0.009231567	
1740130605310	-0.0024414062	
1740130605311	-0.05836487	
1740130605312	-0.032577515	
1740130605313	0.02243042	
1740130605314	0.022277832	
1740130605315	0.024337769	
1740130605316	0.022888184	
1740130605317	0.003967285	
1740130605318	-0.0090789795	
1740130605319	-0.009613037	
1740130605320	-0.0064849854	
1740130605321	-0.0050354004	
1740130605322	0.0063323975	
1740130605323	0.0051879883	
1740130605324	-0.002822876	
1740130605325	0.0064849854	
1740130605326	-0.0035858154	
1740130605327	-0.008087158	
1740130605328	0.0146484375	
1740130605329	0.018615723	
1740130605330	0.010070801	
1740130605331	-0.008773804	
1740130605332	-0.020904541	
1740130605333	0.0024414062	
1740130605334	0.010681152	
1740130605335	-9.918213E-4	
1740130605336	7.6293945E-4	
1740130605337	-0.002746582	
1740130605338	-0.009918213	
1740130605339	0.0022125244	
1740130605340	0.010147095	
1740130605341	-8.392334E-4	
1740130605342	-0.004043579	
1740130605343	3.0517578E-4	
1740130605344	0.0019073486	
1740130605345	-0.009384155	
1740130605346	-0.023651123	
1740130605347	-0.012512207	
1740130605348	-0.012054443	
1740130605349	-0.020980835	
1740130605350	0.009994507	
1740130605351	0.023803711	
1740130605352	0.0065612793	
1740130605353	0.008468628	
1740130605354	0.010986328	
1740130605355	0.008850098	
1740130605356	0.0037384033	
1740130605357	6.1035156E-4	
1740130605358	0.008850098	
1740130605359	0.0017547607	
1740130605360	-0.0038909912	
1740130605361	0.0025177002	
1740130605362	-0.0029754639	
1740130605363	-0.004043579	
1740130605364	0.0045776367	
1740130605365	0.011520386	
1740130605366	0.0045776367	
1740130605367	-0.0073242188	
1740130605368	-0.011978149	
1740130605369	-0.020751953	
1740130605370	-0.015640259	
1740130605371	0.001449585	
1740130605372	0.009307861	
1740130605373	0.012359619	
1740130605374	0.0059509277	
1740130605375	-0.001373291	
1740130605376	0.0050354004	
1740130605377	0.0064086914	
1740130605378	-0.007247925	
1740130605379	-0.016479492	
1740130605380	-0.030441284	
1740130605381	-0.036087036	
1740130605382	-6.866455E-4	
1740130605383	0.01701355	
1740130605384	0.011062622	
1740130605385	0.023651123	
1740130605386	0.023040771	
1740130605387	0.022659302	
1740130605388	0.029525757	
1740130605389	0.0049591064	
1740130605390	-0.024795532	
1740130605391	-0.02494812	
1740130605392	-0.0076293945	
1740130605393	0.0051116943	
1740130605394	0.0045776367	
1740130605395	0.0	
1740130605396	-0.015106201	
1740130605397	-0.019073486	
1740130605398	0.0074768066	
1740130605399	0.014266968	
1740130605400	-0.0022888184	
1740130605401	-0.009765625	
1740130605402	-0.015258789	
1740130605403	-0.015411377	
1740130605404	-3.0517578E-4	
1740130605405	0.018005371	
1740130605406	0.016479492	
1740130605407	0.011520386	
1740130605408	0.014724731	
1740130605409	0.013504028	
1740130605410	0.012130737	
1740130605411	0.0019073486	
1740130605412	-0.009307861	
1740130605413	-0.008087158	
1740130605414	-0.0031280518	
1740130605415	-0.0038146973	
1740130605416	0.0024414062	
1740130605417	0.011672974	
1740130605418	0.0025939941	
1740130605419	-0.008621216	
1740130605420	-0.016326904	
1740130605421	-0.015106201	
1740130605422	-0.0075531006	
1740130605423	-0.00579834	
1740130605424	6.866455E-4	
1740130605425	-0.005493164	
1740130605426	-0.007171631	
1740130605427	0.009002686	
1740130605428	0.0019836426	
1740130605429	-0.0118255615	
1740130605430	-0.0076293945	
1740130605431	-0.0064086914	
1740130605432	-0.0060272217	
1740130605433	0.011672974	
1740130605434	0.015487671	
1740130605435	0.0019073486	
1740130605436	-0.0010681152	
1740130605437	0.0	
1740130605438	0.010528564	
1740130605439	0.011672974	
1740130605440	0.0017547607	
1740130605441	0.0047302246	
1740130605442	0.007858276	
1740130605443	0.0063323975	
1740130605444	0.0025177002	
1740130605445	0.0011444092	
1740130605446	0.011672974	
1740130605447	0.012664795	
1740130605448	-0.0038909912	
1740130605449	-0.013580322	
1740130605450	-0.023040771	
1740130605451	-0.022964478	
1740130605452	-6.1035156E-4	
1740130605453	0.005645752	
1740130605454	-0.0033569336	
1740130605455	-0.006866455	
1740130605456	-0.001373291	
1740130605457	0.0046539307	
1740130605458	-0.005645752	
1740130605459	-0.0035095215	
1740130605460	0.020446777	
1740130605461	0.02204895	
1740130605462	-0.014572144	
1740130605463	-0.033950806	
1740130605464	-0.0045776367	
1740130605465	0.011291504	
1740130605466	0.0025177002	
1740130605467	0.0012969971	
1740130605468	0.0019836426	
1740130605469	0.009536743	
1740130605470	0.014419556	
1740130605471	0.0090789795	
1740130605472	0.00541687	
1740130605473	0.0016021729	
1740130605474	-0.002670288	
1740130605475	-0.0075531006	
1740130605476	-0.0063323975	
1740130605477	-0.004272461	
1740130605478	-0.0025177002	
1740130605479	0.004501343	
1740130605480	0.0047302246	
1740130605481	0.0035095215	
1740130605482	0.0048828125	
1740130605483	0.0059509277	
1740130605484	-0.0037384033	
1740130605485	-0.016860962	
1740130605486	-0.01335144	
1740130605487	-0.0074768066	
1740130605488	-0.006790161	
1740130605489	-0.0032806396	
1740130605490	0.0038909912	
1740130605491	-0.0032806396	
1740130605492	-0.013504028	
1740130605493	-7.6293945E-4	
1740130605494	0.009307861	
1740130605495	0.008392334	
1740130605496	0.007247925	
1740130605497	0.010070801	
1740130605498	0.013656616	
1740130605499	0.0035858154	
1740130605500	-0.0011444092	
1740130605501	1.5258789E-4	
1740130605502	3.8146973E-4	
1740130605503	0.0090789795	
1740130605504	-0.0033569336	
1740130605505	-0.017623901	
1740130605506	-0.004425049	
1740130605507	-0.004119873	
1740130605508	0.0019836426	
1740130605509	0.012435913	
1740130605510	-0.008621216	
1740130605511	-0.0065612793	
1740130605512	0.008850098	
1740130605513	0.004196167	
1740130605514	-0.002670288	
1740130605515	-0.0025939941	
1740130605516	0.007095337	
1740130605517	-7.6293945E-4	
1740130605518	-0.010528564	
1740130605519	-0.0018310547	
1740130605520	0.008544922	
1740130605521	0.0074005127	
1740130605522	-2.2888184E-4	
1740130605523	0.008773804	
1740130605524	0.005493164	
1740130605525	-0.0020599365	
1740130605526	0.00579834	
1740130605527	-0.009765625	
1740130605528	-0.023727417	
1740130605529	-0.013656616	
1740130605530	-0.0016784668	
1740130605531	-0.0048065186	
1740130605532	-0.008468628	
1740130605533	0.011291504	
1740130605534	0.019607544	
1740130605535	0.008468628	
1740130605536	7.6293945E-4	
1740130605537	-0.012359619	
1740130605538	-0.012207031	
1740130605539	-0.004272461	
1740130605540	-0.005264282	
1740130605541	0.0076293945	
1740130605542	0.017242432	
1740130605543	0.012893677	
1740130605544	0.0038909912	
1740130605545	0.0022888184	
1740130605546	0.010147095	
1740130605547	0.010681152	
1740130605548	0.0029754639	
1740130605549	-0.018234253	
1740130605550	-0.034179688	
1740130605551	-0.029754639	
1740130605552	-0.019454956	
1740130605553	-0.002670288	
1740130605554	0.018920898	
1740130605555	0.027542114	
1740130605556	0.008544922	
1740130605557	-0.005722046	
1740130605558	0.0025939941	
1740130605559	0.010070801	
1740130605560	0.01121521	
1740130605561	-0.002822876	
1740130605562	-0.016937256	
1740130605563	-0.008850098	
1740130605564	0.016860962	
1740130605565	0.030212402	
1740130605566	0.0077819824	
1740130605567	-0.008239746	
1740130605568	-0.016174316	
1740130605569	-0.021743774	
1740130605570	0.0033569336	
1740130605571	0.010223389	
1740130605572	0.0024414062	
1740130605573	0.01411438	
1740130605574	0.00869751	
1740130605575	3.8146973E-4	
1740130605576	-0.0034332275	
1740130605577	-0.014877319	
1740130605578	-0.00289917	
1740130605579	0.0025939941	
1740130605580	-0.0090789795	
1740130605581	-0.0049591064	
1740130605582	-0.0018310547	
1740130605583	0.006866455	
1740130605584	0.0075531006	
1740130605585	-0.010528564	
1740130605586	-0.006942749	
1740130605587	0.0062561035	
1740130605588	4.5776367E-4	
1740130605589	-0.0024414062	
1740130605590	-3.8146973E-4	
1740130605591	-0.013809204	
1740130605592	-0.018920898	
1740130605593	-0.007095337	
1740130605594	0.0015258789	
1740130605595	0.012969971	
1740130605596	0.012588501	
1740130605597	4.5776367E-4	
1740130605598	0.0059509277	
1740130605599	0.0051879883	
1740130605600	0.0021362305	
1740130605601	0.0061798096	
1740130605602	-0.0035858154	
1740130605603	-0.0050354004	
1740130605604	-0.0035095215	
1740130605605	-0.0017547607	
1740130605606	9.1552734E-4	
1740130605607	-0.005264282	
1740130605608	0.002822876	
1740130605609	0.0090789795	
1740130605610	0.009002686	
1740130605611	0.013809204	
1740130605612	0.007247925	
1740130605613	-0.0074768066	
1740130605614	-0.012893677	
1740130605615	-0.0051116943	
1740130605616	-0.0029754639	
1740130605617	-0.0038909912	
1740130605618	0.0049591064	
1740130605619	0.0015258789	
1740130605620	-0.008850098	
1740130605621	-3.8146973E-4	
1740130605622	0.0029754639	
1740130605623	-0.002746582	
1740130605624	0.0050354004	
1740130605625	0.005493164	
1740130605626	-0.0035095215	
1740130605627	-0.005722046	
1740130605628	-3.8146973E-4	
1740130605629	0.0012207031	
1740130605630	0.0018310547	
1740130605631	0.005874634	
1740130605632	0.0023651123	
1740130605633	0.0037384033	
1740130605634	4.5776367E-4	
1740130605635	-0.0062561035	
1740130605636	0.0032043457	
1740130605637	0.014343262	
1740130605638	0.008544922	
1740130605639	-0.012893677	
1740130605640	-0.019378662	
1740130605641	-0.012283325	
1740130605642	-0.005493164	
1740130605643	0.0016784668	
1740130605644	-0.006942749	
1740130605645	-0.015716553	
1740130605646	-0.0018310547	
1740130605647	0.019226074	
1740130605648	0.012893677	
1740130605649	-0.001373291	
1740130605650	0.009994507	
1740130605651	0.008010864	
1740130605652	-0.01449585	
1740130605653	-0.01449585	
1740130605654	0.0017547607	
1740130605655	0.0061035156	
1740130605656	0.007171631	
1740130605657	0.009155273	
1740130605658	0.0025177002	
1740130605659	-0.0016784668	
1740130605660	0.0022888184	
1740130605661	0.003967285	
1740130605662	0.0022125244	
1740130605663	0.0035858154	
1740130605664	0.004501343	
1740130605665	-6.866455E-4	
1740130605666	-0.004501343	
1740130605667	-0.0035095215	
1740130605668	0.0030517578	
1740130605669	0.0037384033	
1740130605670	-0.014266968	
1740130605671	-0.018157959	
1740130605672	0.0010681152	
1740130605673	0.0051879883	
1740130605674	0.0022125244	
1740130605675	0.0034332275	
1740130605676	0.0023651123	
1740130605677	0.0032806396	
1740130605678	-0.0077819824	
1740130605679	-0.00831604	
1740130605680	0.017852783	
1740130605681	0.027160645	
1740130605682	0.004425049	
1740130605683	-0.028076172	
1740130605684	-0.042114258	
1740130605685	-0.023651123	
1740130605686	-0.020065308	
1740130605687	-0.016860962	
1740130605688	0.022506714	
1740130605689	0.025558472	
1740130605690	0.012283325	
1740130605691	0.015106201	
1740130605692	0.00793457	
1740130605693	0.0118255615	
1740130605694	0.016098022	
1740130605695	0.01449585	
1740130605696	0.009994507	
1740130605697	0.004043579	
1740130605698	9.1552734E-4	
1740130605699	-0.012435913	
1740130605700	-0.026855469	
1740130605701	-0.017471313	
1740130605702	-9.1552734E-4	
1740130605703	-0.0017547607	
1740130605704	0.0017547607	
1740130605705	0.012130737	
1740130605706	0.012893677	
1740130605707	0.0035858154	
1740130605708	6.866455E-4	
1740130605709	0.011749268	
1740130605710	0.015716553	
1740130605711	-0.004272461	
1740130605712	-0.027542114	
1740130605713	-0.018692017	
1740130605714	-0.0020599365	
1740130605715	-0.010910034	
1740130605716	-0.018081665	
1740130605717	-0.0076293945	
1740130605718	0.0015258789	
1740130605719	1.5258789E-4	
1740130605720	0.0048065186	
1740130605721	0.015106201	
1740130605722	0.010528564	
1740130605723	0.009307861	
1740130605724	0.00579834	
1740130605725	-0.01838684	
1740130605726	-0.011138916	
1740130605727	0.006790161	
1740130605728	-0.0012207031	
1740130605729	0.0061798096	
1740130605730	0.011062622	
1740130605731	0.004043579	
1740130605732	-6.866455E-4	
1740130605733	-3.8146973E-4	
1740130605734	0.009765625	
1740130605735	-0.005569458	
1740130605736	-0.02319336	
1740130605737	-0.0022888184	
1740130605738	0.014343262	
1740130605739	0.004348755	
1740130605740	-0.00289917	
1740130605741	3.8146973E-4	
1740130605742	7.6293945E-4	
1740130605743	0.010070801	
1740130605744	0.0132751465	
1740130605745	-0.0032043457	
1740130605746	-0.008926392	
1740130605747	-0.010757446	
1740130605748	-0.008392334	
1740130605749	0.005645752	
1740130605750	0.0061035156	
1740130605751	-6.1035156E-4	
1740130605752	-0.0048828125	
1740130605753	-0.008087158	
1740130605754	-0.0033569336	
1740130605755	-0.002822876	
1740130605756	0.0031280518	
1740130605757	0.006942749	
1740130605758	-0.007247925	
1740130605759	-0.008087158	
1740130605760	-0.0010681152	
1740130605761	0.007019043	
1740130605762	0.010604858	
1740130605763	-7.6293945E-5	
1740130605764	3.0517578E-4	
1740130605765	3.0517578E-4	
1740130605766	0.004119873	
1740130605767	0.005722046	
1740130605768	-0.017471313	
1740130605769	-0.0118255615	
1740130605770	0.012969971	
1740130605771	0.016784668	
1740130605772	0.010528564	
1740130605773	-0.002822876	
1740130605774	-0.008010864	
1740130605775	-0.0050354004	
1740130605776	0.0032806396	
1740130605777	0.008621216	
1740130605778	-0.004272461	
1740130605779	-0.004196167	
1740130605780	0.009918213	
1740130605781	-3.8146973E-4	
1740130605782	-0.0076293945	
1740130605783	0.0019073486	
1740130605784	0.0066375732	
1740130605785	0.013580322	
1740130605786	0.0021362305	
1740130605787	-0.019073486	
1740130605788	-0.016860962	
1740130605789	-0.01159668	
1740130605790	-0.012664795	
1740130605791	0.0016784668	
1740130605792	0.03387451	
1740130605793	0.030059814	
1740130605794	-0.029067993	
1740130605795	-0.059127808	
1740130605796	-0.01411438	
1740130605797	0.024032593	
1740130605798	0.0016784668	
1740130605799	-0.015411377	
1740130605800	-0.014038086	
1740130605801	-0.007858276	
1740130605802	0.02128601	
1740130605803	0.027542114	
1740130605804	0.019226074	
1740130605805	0.033950806	
1740130605806	0.023727417	
1740130605807	-0.021438599	
1740130605808	-0.023651123	
1740130605809	0.0090789795	
1740130605810	0.004043579	
1740130605811	-0.010757446	
1740130605812	-0.007095337	
1740130605813	0.001373291	
1740130605814	0.009689331	
1740130605815	4.5776367E-4	
1740130605816	-0.013580322	
1740130605817	-3.0517578E-4	
1740130605818	0.016098022	
1740130605819	-0.0020599365	
1740130605820	-0.01876831	
1740130605821	-0.0012207031	
1740130605822	0.02281189	
1740130605823	0.027999878	
1740130605824	0.01335144	
1740130605825	-0.0035858154	
1740130605826	-0.016860962	
1740130605827	-0.031967163	
1740130605828	-0.02456665	
1740130605829	-0.008087158	
1740130605830	-0.002746582	
1740130605831	0.0060272217	
1740130605832	-0.001373291	
1740130605833	-0.014266968	
1740130605834	0.0077056885	
1740130605835	0.016174316	
1740130605836	0.005569458	
1740130605837	0.015945435	
1740130605838	0.008850098	
1740130605839	0.002670288	
1740130605840	0.0051879883	
1740130605841	-0.0077819824	
1740130605842	-0.013046265	
1740130605843	-0.009689331	
1740130605844	-0.0023651123	
1740130605845	-0.0047302246	
1740130605846	-0.00579834	
1740130605847	0.0045776367	
1740130605848	0.0063323975	
1740130605849	0.0064086914	
1740130605850	0.0015258789	
1740130605851	-0.0032043457	
1740130605852	0.0016784668	
1740130605853	0.004348755	
1740130605854	-0.0049591064	
1740130605855	-0.011520386	
1740130605856	-0.0034332275	
1740130605857	-0.0016021729	
1740130605858	0.0019836426	
1740130605859	0.004119873	
1740130605860	0.0033569336	
1740130605861	0.016326904	
1740130605862	0.015563965	
1740130605863	-0.0011444092	
1740130605864	-0.012435913	
1740130605865	-0.010070801	
1740130605866	-0.01876831	
1740130605867	-0.04005432	
1740130605868	-0.021591187	
1740130605869	0.0032806396	
1740130605870	0.02357483	
1740130605871	0.04623413	
1740130605872	0.021743774	
1740130605873	-3.0517578E-4	
1740130605874	0.009002686	
1740130605875	0.008544922	
1740130605876	0.013885498	
1740130605877	0.015106201	
1740130605878	3.0517578E-4	
1740130605879	-0.004348755	
1740130605880	-0.008621216	
1740130605881	-0.013427734	
1740130605882	-0.018310547	
1740130605883	-0.021362305	
1740130605884	-0.009384155	
1740130605885	-0.0035858154	
1740130605886	-0.0019836426	
1740130605887	0.0074005127	
1740130605888	0.010681152	
1740130605889	0.0046539307	
1740130605890	-0.006713867	
1740130605891	-0.013961792	
1740130605892	-0.0059509277	
1740130605893	0.005264282	
1740130605894	0.009155273	
1740130605895	0.016555786	
1740130605896	0.008926392	
1740130605897	-0.010528564	
1740130605898	-0.0021362305	
1740130605899	0.0032806396	
1740130605900	-0.0012207031	
1740130605901	-0.012207031	
1740130605902	-0.030212402	
1740130605903	-0.009994507	
1740130605904	0.007858276	
1740130605905	-0.0074768066	
1740130605906	-0.001373291	
1740130605907	0.016860962	
1740130605908	0.012435913	
1740130605909	0.016937256	
1740130605910	0.015182495	
1740130605911	0.0019073486	
1740130605912	0.0021362305	
1740130605913	-0.004272461	
1740130605914	0.0074768066	
1740130605915	0.010528564	
1740130605916	-0.0066375732	
1740130605917	-0.008544922	
1740130605918	-0.03364563	
1740130605919	-0.031280518	
1740130605920	0.0017547607	
1740130605921	0.010986328	
1740130605922	0.027389526	
1740130605923	0.005569458	
1740130605924	-0.02029419	
1740130605925	-0.0025177002	
1740130605926	0.004043579	
1740130605927	0.007095337	
1740130605928	0.0017547607	
1740130605929	-0.0019836426	
1740130605930	0.018920898	
1740130605931	0.021591187	
1740130605932	0.0011444092	
1740130605933	-0.0060272217	
1740130605934	-4.5776367E-4	
1740130605935	0.012893677	
1740130605936	0.01586914	
1740130605937	-0.0018310547	
1740130605938	-0.013198853	
1740130605939	-0.018005371	
1740130605940	-0.015335083	
1740130605941	-0.008239746	
1740130605942	-0.0038146973	
1740130605943	-0.004119873	
1740130605944	-0.005645752	
1740130605945	0.002822876	
1740130605946	0.0019836426	
1740130605947	0.0024414062	
1740130605948	0.00541687	
1740130605949	0.0035858154	
1740130605950	0.005722046	
1740130605951	-0.0021362305	
1740130605952	-0.005722046	
1740130605953	-7.6293945E-5	
1740130605954	0.0020599365	
1740130605955	0.0037384033	
1740130605956	5.340576E-4	
1740130605957	-0.008239746	
1740130605958	0.0037384033	
1740130605959	0.015258789	
1740130605960	-0.013198853	
1740130605961	-0.024490356	
1740130605962	-0.008544922	
1740130605963	0.0020599365	
1740130605964	0.002822876	
1740130605965	-0.0029754639	
1740130605966	0.0077056885	
1740130605967	-3.8146973E-4	
1740130605968	-0.01701355	
1740130605969	-0.008773804	
1740130605970	-3.8146973E-4	
1740130605971	0.011672974	
1740130605972	0.011367798	
1740130605973	0.0119018555	
1740130605974	0.013122559	
1740130605975	0.0016784668	
1740130605976	0.012817383	
1740130605977	0.013885498	
1740130605978	0.0038909912	
1740130605979	0.0064849854	
1740130605980	-0.0012207031	
1740130605981	-0.00579834	
1740130605982	-0.0036621094	
1740130605983	-6.1035156E-4	
1740130605984	-0.0011444092	
1740130605985	-0.0050354004	
1740130605986	-0.004043579	
1740130605987	5.340576E-4	
1740130605988	0.009384155	
1740130605989	0.00541687	
1740130605990	-0.008621216	
1740130605991	-0.010757446	
1740130605992	-0.009002686	
1740130605993	-0.010528564	
1740130605994	-0.012207031	
1740130605995	-0.013427734	
1740130605996	-0.018997192	
1740130605997	-0.015945435	
1740130605998	0.0059509277	
1740130605999	0.012359619	
1740130606000	0.00831604	
1740130606001	0.0064086914	
1740130606002	-9.918213E-4	
1740130606003	0.007247925	
1740130606004	0.011062622	
1740130606005	0.005264282	
1740130606006	0.0074005127	
1740130606007	0.0075531006	
1740130606008	0.005645752	
1740130606009	0.002822876	
1740130606010	0.0065612793	
1740130606011	0.0066375732	
1740130606012	0.002670288	
1740130606013	0.0048065186	
1740130606014	0.009155273	
1740130606015	0.028839111	
1740130606016	0.033340454	
1740130606017	-0.011444092	
1740130606018	-0.065078735	
1740130606019	-0.06324768	
1740130606020	-0.029678345	
1740130606021	-0.00541687	
1740130606022	0.008850098	
1740130606023	0.0074005127	
1740130606024	0.017318726	
1740130606025	0.0010681152	
1740130606026	-0.024108887	
1740130606027	0.0018310547	
1740130606028	0.021972656	
1740130606029	0.028457642	
1740130606030	0.0025177002	
1740130606031	-0.030288696	
1740130606032	-0.002746582	
1740130606033	0.014801025	
1740130606034	0.025787354	
1740130606035	0.0340271	
1740130606036	-0.0016021729	
1740130606037	-0.01739502	
1740130606038	-0.010299683	
1740130606039	0.001373291	
1740130606040	0.0090789795	
1740130606041	0.0025939941	
1740130606042	0.0033569336	
1740130606043	-0.0010681152	
1740130606044	-0.0018310547	
1740130606045	0.0035095215	
1740130606046	-0.0019836426	
1740130606047	-3.8146973E-4	
1740130606048	0.0011444092	
1740130606049	-0.00289917	
1740130606050	-0.005493164	
1740130606051	-0.00579834	
1740130606052	-0.0031280518	
1740130606053	-0.004425049	
1740130606054	-0.0019836426	
1740130606055	-0.0035095215	
1740130606056	-0.005340576	
1740130606057	7.6293945E-5	
1740130606058	-8.392334E-4	
1740130606059	-0.0062561035	
1740130606060	-0.011520386	
1740130606061	-0.0064849854	
1740130606062	0.0021362305	
1740130606063	-0.0018310547	
1740130606064	-0.0029754639	
1740130606065	0.0047302246	
1740130606066	0.009536743	
1740130606067	0.0063323975	
1740130606068	-0.0050354004	
1740130606069	-0.0016784668	
1740130606070	0.01838684	
1740130606071	0.01739502	
1740130606072	-0.0051879883	
1740130606073	-0.020751953	
1740130606074	-0.009460449	
1740130606075	-0.0018310547	
1740130606076	-0.01335144	
1740130606077	-0.008621216	
1740130606078	-0.010223389	
1740130606079	-0.0061035156	
1740130606080	0.020065308	
1740130606081	0.01701355	
1740130606082	0.018310547	
1740130606083	0.03303528	
1740130606084	0.009994507	
1740130606085	-0.020370483	
1740130606086	-0.030899048	
1740130606087	-0.0016021729	
1740130606088	0.025634766	
1740130606089	0.018997192	
1740130606090	0.018157959	
1740130606091	-0.0022125244	
1740130606092	-0.02029419	
1740130606093	-0.008773804	
1740130606094	-0.0036621094	
1740130606095	-0.011520386	
1740130606096	-0.019607544	
1740130606097	0.0033569336	
1740130606098	0.020828247	
1740130606099	7.6293945E-4	
1740130606100	0.0031280518	
1740130606101	0.009231567	
1740130606102	0.0038909912	
1740130606103	0.005264282	
1740130606104	-3.8146973E-4	
1740130606105	9.918213E-4	
1740130606106	-0.00289917	
1740130606107	-0.016098022	
1740130606108	-0.01121521	
1740130606109	-0.0038146973	
1740130606110	-0.0075531006	
1740130606111	-0.0045776367	
1740130606112	-0.0025939941	
1740130606113	-0.0038909912	
1740130606114	-0.0021362305	
1740130606115	-0.001449585	
1740130606116	0.0035095215	
1740130606117	0.0050354004	
1740130606118	3.8146973E-4	
1740130606119	6.1035156E-4	
1740130606120	-5.340576E-4	
1740130606121	0.0025177002	
1740130606122	0.022659302	
1740130606123	0.02029419	
1740130606124	-0.019760132	
1740130606125	-0.060577393	
1740130606126	-0.046691895	
1740130606127	0.021362305	
1740130606128	0.024795532	
1740130606129	-0.008773804	
1740130606130	-0.011138916	
1740130606131	5.340576E-4	
1740130606132	0.040664673	
1740130606133	0.03753662	
1740130606134	0.009918213	
1740130606135	-0.0146484375	
1740130606136	-0.039215088	
1740130606137	0.005645752	
1740130606138	0.021896362	
1740130606139	0.0060272217	
1740130606140	0.022735596	
1740130606141	0.010757446	
1740130606142	0.006713867	
1740130606143	0.019989014	
1740130606144	0.014724731	
1740130606145	0.015029907	
1740130606146	0.012588501	
1740130606147	-0.005722046	
1740130606148	-0.024719238	
1740130606149	-0.0390625	
1740130606150	-0.034561157	
1740130606151	-0.001373291	
1740130606152	0.020523071	
1740130606153	0.01953125	
1740130606154	0.007019043	
1740130606155	-0.027542114	
1740130606156	-0.04714966	
1740130606157	-0.026321411	
1740130606158	-0.0061798096	
1740130606159	-0.0059509277	
1740130606160	-0.0051116943	
1740130606161	-0.0023651123	
1740130606162	0.007095337	
1740130606163	0.02494812	
1740130606164	0.022277832	
1740130606165	0.018539429	
1740130606166	0.024108887	
1740130606167	0.019836426	
1740130606168	6.866455E-4	
1740130606169	-0.043945312	
1740130606170	-0.04272461	
1740130606171	0.016708374	
1740130606172	0.023803711	
1740130606173	0.0033569336	
1740130606174	0.0019073486	
1740130606175	-0.0059509277	
1740130606176	0.009231567	
1740130606177	0.011520386	
1740130606178	-0.0062561035	
1740130606179	-0.003967285	
1740130606180	2.2888184E-4	
1740130606181	0.0012969971	
1740130606182	-9.1552734E-4	
1740130606183	0.0011444092	
1740130606184	0.0016021729	
1740130606185	-0.0034332275	
1740130606186	-9.918213E-4	
1740130606187	-0.0029754639	
1740130606188	-0.0065612793	
1740130606189	-0.0011444092	
1740130606190	-4.5776367E-4	
1740130606191	-0.0015258789	
1740130606192	-9.1552734E-4	
1740130606193	-0.0021362305	
1740130606194	-6.1035156E-4	
1740130606195	-0.0016784668	
1740130606196	0.0077819824	
1740130606197	0.024719238	
1740130606198	0.016860962	
1740130606199	-0.014572144	
1740130606200	-0.039138794	
1740130606201	-0.023345947	
1740130606202	0.002746582	
1740130606203	-0.00579834	
1740130606204	-0.0045776367	
1740130606205	0.016860962	
1740130606206	0.020904541	
1740130606207	0.021972656	
1740130606208	0.018005371	
1740130606209	0.012588501	
1740130606210	0.020141602	
1740130606211	0.009155273	
1740130606212	-0.028457642	
1740130606213	-0.07255554	
1740130606214	-0.0730896	
1740130606215	-0.017852783	
1740130606216	0.013504028	
1740130606217	0.011444092	
1740130606218	0.032196045	
1740130606219	0.026779175	
1740130606220	0.013961792	
1740130606221	0.03692627	
1740130606222	0.02784729	
1740130606223	0.020904541	
1740130606224	0.010375977	
1740130606225	-0.032196045	
1740130606226	-0.024414062	
1740130606227	0.009765625	
1740130606228	0.018005371	
1740130606229	0.008087158	
1740130606230	0.0011444092	
1740130606231	0.005645752	
1740130606232	-0.004196167	
1740130606233	-0.011138916	
1740130606234	-0.00831604	
1740130606235	-0.0045776367	
1740130606236	0.0031280518	
1740130606237	7.6293945E-5	
1740130606238	-0.010528564	
1740130606239	-0.0019073486	
1740130606240	0.026550293	
1740130606241	0.014801025	
1740130606242	-0.04547119	
1740130606243	-0.07965088	
1740130606244	-0.069122314	
1740130606245	-0.04043579	
1740130606246	-0.026626587	
1740130606247	-0.0051116943	
1740130606248	0.03768921	
1740130606249	0.05050659	
1740130606250	0.042266846	
1740130606251	0.033493042	
1740130606252	0.022964478	
1740130606253	0.014953613	
1740130606254	0.012741089	
1740130606255	0.009384155	
1740130606256	0.002670288	
1740130606257	0.008544922	
1740130606258	0.013122559	
1740130606259	0.005340576	
1740130606260	8.392334E-4	
1740130606261	0.0025939941	
1740130606262	0.00793457	
1740130606263	0.008926392	
1740130606264	0.0019073486	
1740130606265	-0.006866455	
1740130606266	-0.010299683	
1740130606267	-0.009918213	
1740130606268	-0.01083374	
1740130606269	-0.009002686	
1740130606270	-0.010147095	
1740130606271	-0.009307861	
1740130606272	-0.007247925	
1740130606273	-0.008239746	
1740130606274	-0.005569458	
1740130606275	-0.00579834	
1740130606276	-0.007171631	
1740130606277	-0.004119873	
1740130606278	-0.0037384033	
1740130606279	-0.0061035156	
1740130606280	9.1552734E-4	
1740130606281	0.0029754639	
1740130606282	-0.0022888184	
1740130606283	0.0031280518	
1740130606284	0.01449585	
1740130606285	0.014724731	
1740130606286	-0.008850098	
1740130606287	-0.00831604	
1740130606288	0.005874634	
1740130606289	-0.015640259	
1740130606290	-0.023345947	
1740130606291	-0.013427734	
1740130606292	0.01159668	
1740130606293	0.02494812	
1740130606294	-0.001449585	
1740130606295	0.0059509277	
1740130606296	0.009307861	
1740130606297	0.0024414062	
1740130606298	0.022125244	
1740130606299	0.0048828125	
1740130606300	-9.1552734E-4	
1740130606301	0.017700195	
1740130606302	0.00831604	
1740130606303	6.1035156E-4	
1740130606304	0.009994507	
1740130606305	0.021896362	
1740130606306	0.009384155	
1740130606307	-0.01838684	
1740130606308	-0.04699707	
1740130606309	-0.05065918	
1740130606310	-0.018157959	
1740130606311	-0.014572144	
1740130606312	-0.00579834	
1740130606313	0.04333496	
1740130606314	0.035629272	
1740130606315	-0.0077056885	
1740130606316	-0.010604858	
1740130606317	0.013122559	
1740130606318	0.012893677	
1740130606319	-0.009002686	
1740130606320	0.0017547607	
1740130606321	0.009460449	
1740130606322	0.004425049	
1740130606323	0.0019073486	
1740130606324	-0.013809204	
1740130606325	-0.0074005127	
1740130606326	0.008926392	
1740130606327	0.0076293945	
1740130606328	0.0016784668	
1740130606329	-0.0062561035	
1740130606330	-0.008163452	
1740130606331	-0.0033569336	
1740130606332	-5.340576E-4	
1740130606333	-0.0073242188	
1740130606334	-0.008163452	
1740130606335	0.011749268	
1740130606336	0.012435913	
1740130606337	-0.005569458	
1740130606338	-0.004272461	
1740130606339	-3.0517578E-4	
1740130606340	0.0012207031	
1740130606341	-0.0016784668	
1740130606342	-0.01411438	
1740130606343	-0.011520386	
1740130606344	-0.0038909912	
1740130606345	-3.8146973E-4	
1740130606346	0.012893677	
1740130606347	0.01586914	
1740130606348	0.0076293945	
1740130606349	0.0066375732	
1740130606350	-0.011978149	
1740130606351	-0.021438599	
1740130606352	-0.004043579	
1740130606353	-0.014724731	
1740130606354	-0.010223389	
1740130606355	0.018081665	
1740130606356	0.0064086914	
1740130606357	-0.0051116943	
1740130606358	0.001373291	
1740130606359	0.013656616	
1740130606360	0.019378662	
1740130606361	0.00541687	
1740130606362	0.0010681152	
1740130606363	-1.5258789E-4	
1740130606364	-4.5776367E-4	
1740130606365	0.0025177002	
1740130606366	-0.0011444092	
1740130606367	0.005874634	
1740130606368	0.013122559	
1740130606369	0.01739502	
1740130606370	0.012512207	
1740130606371	-0.023117065	
1740130606372	-0.03112793	
1740130606373	-0.015716553	
1740130606374	-0.021438599	
1740130606375	0.0060272217	
1740130606376	0.029754639	
1740130606377	0.018692017	
1740130606378	-0.004348755	
1740130606379	-0.044555664	
1740130606380	-0.029067993	
1740130606381	0.019073486	
1740130606382	0.014572144	
1740130606383	-0.019226074	
1740130606384	-0.030670166	
1740130606385	-0.0032043457	
1740130606386	0.00793457	
1740130606387	-0.0049591064	
1740130606388	0.00869751	
1740130606389	0.023803711	
1740130606390	0.027160645	
1740130606391	0.025634766	
1740130606392	0.01083374	
1740130606393	0.013809204	
1740130606394	0.023498535	
1740130606395	0.009918213	
1740130606396	-0.0037384033	
1740130606397	-0.016403198	
1740130606398	-0.02494812	
1740130606399	-0.016403198	
1740130606400	-0.00289917	
1740130606401	0.006713867	
1740130606402	0.0032806396	
1740130606403	-0.0036621094	
1740130606404	-0.0061035156	
1740130606405	-0.001449585	
1740130606406	0.0073242188	
1740130606407	0.0051116943	
1740130606408	0.006942749	
1740130606409	0.012130737	
1740130606410	0.005493164	
1740130606411	-0.0029754639	
1740130606412	-0.021438599	
1740130606413	-0.052108765	
1740130606414	-0.053329468	
1740130606415	-0.012283325	
1740130606416	0.011520386	
1740130606417	0.008544922	
1740130606418	0.0012207031	
1740130606419	-0.0038909912	
1740130606420	0.014343262	
1740130606421	0.027236938	
1740130606422	0.031661987	
1740130606423	0.018463135	
1740130606424	-0.023269653	
1740130606425	-0.026321411	
1740130606426	-0.004196167	
1740130606427	-0.017547607	
1740130606428	-0.009307861	
1740130606429	0.03135681	
1740130606430	0.024871826	
1740130606431	0.004501343	
1740130606432	0.010070801	
1740130606433	0.020523071	
1740130606434	0.018157959	
1740130606435	0.008087158	
1740130606436	0.0048065186	
1740130606437	-0.0019836426	
1740130606438	-8.392334E-4	
1740130606439	7.6293945E-4	
1740130606440	-0.0038146973	
1740130606441	-0.0022125244	
1740130606442	-0.0010681152	
1740130606443	-0.0030517578	
1740130606444	-0.006866455	
1740130606445	-0.006866455	
1740130606446	-0.004348755	
1740130606447	-0.0059509277	
1740130606448	-0.009994507	
1740130606449	-0.008392334	
1740130606450	-0.005340576	
1740130606451	-0.01121521	
1740130606452	-0.01625061	
1740130606453	-0.012359619	
1740130606454	-0.0012207031	
1740130606455	-0.0061798096	
1740130606456	-0.009994507	
1740130606457	0.00579834	
1740130606458	0.0065612793	
1740130606459	0.007247925	
1740130606460	0.006713867	
1740130606461	-0.002746582	
1740130606462	-0.001449585	
1740130606463	0.0018310547	
1740130606464	0.009613037	
1740130606465	0.019454956	
1740130606466	0.019073486	
1740130606467	-7.6293945E-4	
1740130606468	-0.010604858	
1740130606469	0.011062622	
1740130606470	0.005874634	
1740130606471	-0.00289917	
1740130606472	0.0075531006	
1740130606473	-0.015716553	
1740130606474	-0.027542114	
1740130606475	-0.039901733	
1740130606476	-0.038909912	
1740130606477	0.019683838	
1740130606478	0.02281189	
1740130606479	0.010910034	
1740130606480	0.026168823	
1740130606481	0.015487671	
1740130606482	0.021209717	
1740130606483	0.01586914	
1740130606484	0.009231567	
1740130606485	0.008926392	
1740130606486	-0.0010681152	
1740130606487	0.005340576	
1740130606488	0.0038909912	
1740130606489	-8.392334E-4	
1740130606490	-0.00289917	
1740130606491	-0.005264282	
1740130606492	-0.0029754639	
1740130606493	-0.011520386	
1740130606494	-0.017089844	
1740130606495	-0.013198853	
1740130606496	-0.009765625	
1740130606497	-0.005264282	
1740130606498	-0.009231567	
1740130606499	-0.012054443	
1740130606500	2.2888184E-4	
1740130606501	0.0035858154	
1740130606502	0.0010681152	
1740130606503	0.006713867	
1740130606504	0.002822876	
1740130606505	-0.0016784668	
1740130606506	-0.007095337	
1740130606507	-0.012207031	
1740130606508	-0.002746582	
1740130606509	-0.0019836426	
1740130606510	0.007858276	
1740130606511	0.015563965	
1740130606512	0.0011444092	
1740130606513	-0.0032043457	
1740130606514	-0.01663208	
1740130606515	-0.011444092	
1740130606516	-0.004501343	
1740130606517	-0.002670288	
1740130606518	0.033111572	
1740130606519	0.039749146	
1740130606520	0.029144287	
1740130606521	-0.015106201	
1740130606522	-0.06317139	
1740130606523	-0.013198853	
1740130606524	0.03501892	
1740130606525	0.012817383	
1740130606526	0.0029754639	
1740130606527	0.014266968	
1740130606528	-3.0517578E-4	
1740130606529	-0.014419556	
1740130606530	-0.0074005127	
1740130606531	-0.0022888184	
1740130606532	-0.0066375732	
1740130606533	-0.012283325	
1740130606534	-0.0025939941	
1740130606535	0.010375977	
1740130606536	0.017471313	
1740130606537	0.023880005	
1740130606538	0.014801025	
1740130606539	0.00579834	
1740130606540	0.003967285	
1740130606541	-0.008926392	
1740130606542	-0.008850098	
1740130606543	9.918213E-4	
1740130606544	0.002822876	
1740130606545	0.00831604	
1740130606546	0.010681152	
1740130606547	0.0011444092	
1740130606548	-0.016937256	
1740130606549	-0.038528442	
1740130606550	-0.055389404	
1740130606551	-0.045166016	
1740130606552	-3.8146973E-4	
1740130606553	0.019683838	
1740130606554	6.866455E-4	
1740130606555	-0.0065612793	
1740130606556	-0.005264282	
1740130606557	-0.0011444092	
1740130606558	6.1035156E-4	
1740130606559	0.008087158	
1740130606560	0.02357483	
1740130606561	0.019073486	
1740130606562	0.022125244	
1740130606563	0.027618408	
1740130606564	0.018692017	
1740130606565	0.012435913	
1740130606566	0.0064849854	
1740130606567	0.004425049	
1740130606568	0.0045776367	
1740130606569	7.6293945E-4	
1740130606570	-0.0045776367	
1740130606571	-0.008850098	
1740130606572	-0.007247925	
1740130606573	-0.0064849854	
1740130606574	-0.009918213	
1740130606575	-0.009918213	
1740130606576	-0.008773804	
1740130606577	-0.0074005127	
1740130606578	-0.006866455	
1740130606579	-0.006790161	
1740130606580	-0.0038146973	
1740130606581	-0.0035095215	
1740130606582	-0.0033569336	
1740130606583	-9.1552734E-4	
1740130606584	0.0015258789	
1740130606585	0.0036621094	
1740130606586	0.0048065186	
1740130606587	0.0037384033	
1740130606588	-0.012588501	
1740130606589	-0.019454956	
1740130606590	0.0025177002	
1740130606591	0.010147095	
1740130606592	0.0034332275	
1740130606593	0.0065612793	
1740130606594	0.010528564	
1740130606595	0.008239746	
1740130606596	0.0038909912	
1740130606597	0.0062561035	
1740130606598	0.005340576	
1740130606599	1.5258789E-4	
1740130606600	6.1035156E-4	
1740130606601	5.340576E-4	
1740130606602	0.0020599365	
1740130606603	0.008621216	
1740130606604	0.013198853	
1740130606605	0.015029907	
1740130606606	0.010910034	
1740130606607	-0.016326904	
1740130606608	-0.027694702	
1740130606609	-0.023040771	
1740130606610	-0.05744934	
1740130606611	-0.047912598	
1740130606612	0.0036621094	
1740130606613	0.017471313	
1740130606614	0.030899048	
1740130606615	0.017623901	
1740130606616	-0.0059509277	
1740130606617	0.0035095215	
1740130606618	0.020065308	
1740130606619	0.03440857	
1740130606620	0.021057129	
1740130606621	9.1552734E-4	
1740130606622	-0.017166138	
1740130606623	-0.016860962	
1740130606624	0.013809204	
1740130606625	0.016021729	
1740130606626	0.0051879883	
1740130606627	0.0076293945	
1740130606628	0.0010681152	
1740130606629	-0.008926392	
1740130606630	-0.014801025	
1740130606631	-0.0051879883	
1740130606632	-3.0517578E-4	
1740130606633	-0.0061798096	
1740130606634	-0.0020599365	
1740130606635	-0.00289917	
1740130606636	-0.0022125244	
1740130606637	5.340576E-4	
1740130606638	-9.1552734E-4	
1740130606639	-0.0048065186	
1740130606640	-0.00793457	
1740130606641	-0.0051879883	
1740130606642	-0.005722046	
1740130606643	-0.0038146973	
1740130606644	-8.392334E-4	
1740130606645	-0.0010681152	
1740130606646	4.5776367E-4	
1740130606647	0.0011444092	
1740130606648	0.0038909912	
1740130606649	0.004425049	
1740130606650	0.0061798096	
1740130606651	0.008926392	
1740130606652	-0.0050354004	
1740130606653	-0.0119018555	
1740130606654	-0.0036621094	
1740130606655	-0.0076293945	
1740130606656	-0.012054443	
1740130606657	-0.014572144	
1740130606658	-0.011444092	
1740130606659	0.00831604	
1740130606660	0.018920898	
1740130606661	0.020523071	
1740130606662	0.014572144	
1740130606663	0.0018310547	
1740130606664	0.005264282	
1740130606665	0.008010864	
1740130606666	0.0061035156	
1740130606667	0.0066375732	
1740130606668	8.392334E-4	
1740130606669	-3.0517578E-4	
1740130606670	0.0012207031	
1740130606671	0.0017547607	
1740130606672	0.0022888184	
1740130606673	-0.004425049	
1740130606674	-0.011749268	
1740130606675	-0.004425049	
1740130606676	9.1552734E-4	
1740130606677	-0.0010681152	
1740130606678	0.0031280518	
1740130606679	6.1035156E-4	
1740130606680	0.0066375732	
1740130606681	0.016098022	
1740130606682	0.0132751465	
1740130606683	0.0015258789	
1740130606684	-0.029220581	
1740130606685	-0.0440979	
1740130606686	-0.026168823	
1740130606687	-0.0046539307	
1740130606688	9.1552734E-4	
1740130606689	-0.00289917	
1740130606690	0.011291504	
1740130606691	0.016403198	
1740130606692	-0.0048065186	
1740130606693	-0.012817383	
1740130606694	0.0035095215	
1740130606695	0.01159668	
1740130606696	8.392334E-4	
1740130606697	0.013122559	
1740130606698	0.021057129	
1740130606699	0.00541687	
1740130606700	0.0032806396	
1740130606701	0.0051116943	
1740130606702	0.015411377	
1740130606703	0.02067566	
1740130606704	-0.00831604	
1740130606705	-0.04310608	
1740130606706	-0.051574707	
1740130606707	-0.023498535	
1740130606708	0.01373291	
1740130606709	0.0065612793	
1740130606710	0.0010681152	
1740130606711	0.015563965	
1740130606712	0.01159668	
1740130606713	0.027770996	
1740130606714	0.03593445	
1740130606715	0.004348755	
1740130606716	-0.027389526	
1740130606717	-0.011138916	
1740130606718	0.021514893	
1740130606719	0.0048828125	
1740130606720	-0.01411438	
1740130606721	-0.03479004	
1740130606722	-0.044708252	
1740130606723	-0.005569458	
1740130606724	0.018997192	
1740130606725	0.029373169	
1740130606726	0.046157837	
1740130606727	0.028762817	
1740130606728	-0.029449463	
1740130606729	-0.0592041	
1740130606730	-0.023117065	
1740130606731	0.006713867	
1740130606732	0.0076293945	
1740130606733	0.01991272	
1740130606734	0.02029419	
1740130606735	0.006866455	
1740130606736	0.0015258789	
1740130606737	0.009307861	
1740130606738	0.018234253	
1740130606739	0.0048828125	
1740130606740	-0.0046539307	
1740130606741	-0.004425049	
1740130606742	-0.004348755	
1740130606743	-0.0048828125	
1740130606744	-0.009384155	
1740130606745	-0.003967285	
1740130606746	-0.0038146973	
1740130606747	-0.007247925	
1740130606748	-0.0025939941	
1740130606749	-0.002670288	
1740130606750	0.002746582	
1740130606751	0.008850098	
1740130606752	0.004425049	
1740130606753	-0.004425049	
1740130606754	-0.012817383	
1740130606755	-0.012664795	
1740130606756	-0.014266968	
1740130606757	-0.009002686	
1740130606758	0.009231567	
1740130606759	-3.0517578E-4	
1740130606760	-0.02670288	
1740130606761	-0.025253296	
1740130606762	0.0024414062	
1740130606763	0.016555786	
1740130606764	0.0030517578	
1740130606765	0.002670288	
1740130606766	0.010681152	
1740130606767	0.016403198	
1740130606768	0.02067566	
1740130606769	0.006866455	
1740130606770	0.0038909912	
1740130606771	0.012664795	
1740130606772	0.016098022	
1740130606773	0.012207031	
1740130606774	0.0045776367	
1740130606775	0.007171631	
1740130606776	0.005645752	
1740130606777	0.0032806396	
1740130606778	-0.010986328	
1740130606779	-0.035324097	
1740130606780	-0.035247803	
1740130606781	-0.011672974	
1740130606782	0.013580322	
1740130606783	0.02456665	
1740130606784	0.0073242188	
1740130606785	-0.033111572	
1740130606786	-0.02357483	
1740130606787	0.0048065186	
1740130606788	-7.6293945E-5	
1740130606789	0.010223389	
1740130606790	0.009384155	
1740130606791	6.866455E-4	
1740130606792	0.011138916	
1740130606793	0.011444092	
1740130606794	0.013885498	
1740130606795	0.010910034	
1740130606796	-0.0038909912	
1740130606797	-0.0035858154	
1740130606798	-0.0024414062	
1740130606799	-0.002670288	
1740130606800	0.010528564	
1740130606801	0.0032043457	
1740130606802	-0.019683838	
1740130606803	-0.026016235	
1740130606804	-0.03768921	
1740130606805	-0.002746582	
1740130606806	0.04562378	
1740130606807	0.009307861	
1740130606808	-0.01876831	
1740130606809	-0.024795532	
1740130606810	-0.03135681	
1740130606811	0.0032806396	
1740130606812	0.01335144	
1740130606813	0.008468628	
1740130606814	0.018844604	
1740130606815	0.020751953	
1740130606816	0.017318726	
1740130606817	-0.0045776367	
1740130606818	-0.002746582	
1740130606819	0.01953125	
1740130606820	0.0104522705	
1740130606821	9.918213E-4	
1740130606822	-0.0033569336	
1740130606823	-0.004043579	
1740130606824	0.0047302246	
1740130606825	0.0015258789	
1740130606826	-0.0019073486	
1740130606827	9.1552734E-4	
1740130606828	-9.918213E-4	
1740130606829	-7.6293945E-5	
1740130606830	0.0030517578	
1740130606831	-0.016784668	
1740130606832	-0.034484863	
1740130606833	-0.008010864	
1740130606834	-0.005722046	
1740130606835	-0.024108887	
1740130606836	0.0060272217	
1740130606837	0.014572144	
1740130606838	9.1552734E-4	
1740130606839	0.00579834	
1740130606840	0.008773804	
1740130606841	0.0066375732	
1740130606842	-0.0146484375	
1740130606843	-0.007095337	
1740130606844	0.013198853	
1740130606845	-0.004501343	
1740130606846	-0.0076293945	
1740130606847	7.6293945E-5	
1740130606848	0.004043579	
1740130606849	0.010375977	
1740130606850	0.0076293945	
1740130606851	0.010604858	
1740130606852	0.008392334	
1740130606853	0.0015258789	
1740130606854	0.0048065186	
1740130606855	0.0038146973	
1740130606856	0.0012207031	
1740130606857	-0.002822876	
1740130606858	-0.0031280518	
1740130606859	0.0025939941	
1740130606860	-0.0015258789	
1740130606861	-0.004501343	
1740130606862	-0.0025177002	
1740130606863	4.5776367E-4	
1740130606864	0.002746582	
1740130606865	0.0017547607	
1740130606866	0.0020599365	
1740130606867	-9.1552734E-4	
1740130606868	-0.004043579	
1740130606869	-0.009613037	
1740130606870	-0.008468628	
1740130606871	0.004043579	
1740130606872	-0.0073242188	
1740130606873	-0.022354126	
1740130606874	0.0011444092	
1740130606875	0.009689331	
1740130606876	-0.0011444092	
1740130606877	0.002746582	
1740130606878	-0.012893677	
1740130606879	-0.00541687	
1740130606880	0.019073486	
1740130606881	0.0064849854	
1740130606882	-0.0024414062	
1740130606883	-0.002670288	
1740130606884	0.0118255615	
1740130606885	0.018539429	
1740130606886	-0.0060272217	
1740130606887	-0.019836426	
1740130606888	-0.021514893	
1740130606889	7.6293945E-5	
1740130606890	0.019760132	
1740130606891	0.0018310547	
1740130606892	-0.0012207031	
1740130606893	0.01701355	
1740130606894	0.023040771	
1740130606895	0.005874634	
1740130606896	-0.014724731	
1740130606897	-0.014801025	
1740130606898	-0.0066375732	
1740130606899	0.0051116943	
1740130606900	-0.0011444092	
1740130606901	-0.010757446	
1740130606902	0.0016021729	
1740130606903	6.1035156E-4	
1740130606904	0.002670288	
1740130606905	0.009689331	
1740130606906	-0.0024414062	
1740130606907	-0.006942749	
1740130606908	-0.004043579	
1740130606909	0.007247925	
1740130606910	0.009536743	
1740130606911	-4.5776367E-4	
1740130606912	-0.0024414062	
1740130606913	-0.008544922	
1740130606914	0.012664795	
1740130606915	0.021362305	
1740130606916	-0.022506714	
1740130606917	-0.039749146	
1740130606918	-0.014266968	
1740130606919	0.010070801	
1740130606920	0.0025177002	
1740130606921	-0.010910034	
1740130606922	0.0035858154	
1740130606923	0.004348755	
1740130606924	0.0050354004	
1740130606925	0.018844604	
1740130606926	0.017166138	
1740130606927	0.015258789	
1740130606928	0.007858276	
1740130606929	-0.0012207031	
1740130606930	0.0016021729	
1740130606931	-9.1552734E-4	
1740130606932	-0.010528564	
1740130606933	-0.009231567	
1740130606934	-0.010147095	
1740130606935	-0.012893677	
1740130606936	0.001373291	
1740130606937	0.0048065186	
1740130606938	-0.0022888184	
1740130606939	-9.1552734E-4	
1740130606940	-8.392334E-4	
1740130606941	-7.6293945E-4	
1740130606942	0.0012969971	
1740130606943	0.002670288	
1740130606944	0.004043579	
1740130606945	0.0017547607	
1740130606946	8.392334E-4	
1740130606947	0.0022125244	
1740130606948	-0.00831604	
1740130606949	-0.01625061	
1740130606950	-0.0012207031	
1740130606951	0.01121521	
1740130606952	0.005874634	
1740130606953	-0.0032043457	
1740130606954	-0.00793457	
1740130606955	-0.005874634	
1740130606956	-0.001449585	
1740130606957	0.0051879883	
1740130606958	0.009994507	
1740130606959	0.012512207	
1740130606960	0.0146484375	
1740130606961	-9.1552734E-4	
1740130606962	-0.018005371	
1740130606963	-0.008087158	
1740130606964	0.0018310547	
1740130606965	-7.6293945E-4	
1740130606966	0.0011444092	
1740130606967	-0.00579834	
1740130606968	-0.007095337	
1740130606969	0.008163452	
1740130606970	0.009384155	
1740130606971	0.00579834	
1740130606972	2.2888184E-4	
1740130606973	-0.005493164	
1740130606974	0.0045776367	
1740130606975	0.0045776367	
1740130606976	6.866455E-4	
1740130606977	3.0517578E-4	
1740130606978	-0.007247925	
1740130606979	-0.0061798096	
1740130606980	-0.0020599365	
1740130606981	0.001373291	
1740130606982	0.0022125244	
1740130606983	0.0035858154	
1740130606984	0.0050354004	
1740130606985	-0.0038146973	
1740130606986	-0.0060272217	
1740130606987	-0.0060272217	
1740130606988	-0.008773804	
1740130606989	-0.0048065186	
1740130606990	0.002670288	
1740130606991	0.0048065186	
1740130606992	-0.0025939941	
1740130606993	-0.0012207031	
1740130606994	0.0065612793	
1740130606995	0.0020599365	
1740130606996	-0.0016784668	
1740130606997	0.007095337	
1740130606998	0.008926392	
1740130606999	0.0025177002	
1740130607000	0.0018310547	
1740130607001	-0.002746582	
1740130607002	-0.0038909912	
1740130607003	0.0025177002	
1740130607004	-2.2888184E-4	
1740130607005	-0.0016784668	
1740130607006	0.0011444092	
1740130607007	-0.0018310547	
1740130607008	-0.0020599365	
1740130607009	-0.0024414062	
1740130607010	0.0021362305	
1740130607011	0.008239746	
1740130607012	-0.0025177002	
1740130607013	-0.010299683	
1740130607014	-0.01121521	
1740130607015	-0.009002686	
1740130607016	-6.1035156E-4	
1740130607017	0.0023651123	
1740130607018	0.005569458	
1740130607019	0.007095337	
1740130607020	0.0017547607	
1740130607021	0.0032043457	
1740130607022	0.008010864	
1740130607023	0.006790161	
1740130607024	6.866455E-4	
1740130607025	-0.017166138	
1740130607026	-0.020370483	
1740130607027	0.0090789795	
1740130607028	0.015411377	
1740130607029	-0.005722046	
1740130607030	-0.0074768066	
1740130607031	0.005722046	
1740130607032	0.014419556	
1740130607033	-0.0073242188	
1740130607034	-0.031967163	
1740130607035	-0.011291504	
1740130607036	0.019073486	
1740130607037	0.010223389	
1740130607038	-0.016555786	
1740130607039	-0.004272461	
1740130607040	0.013809204	
1740130607041	0.0023651123	
1740130607042	0.0051116943	
1740130607043	0.00831604	
1740130607044	-4.5776367E-4	
1740130607045	0.0118255615	
1740130607046	0.015640259	
1740130607047	0.005340576	
1740130607048	0.008163452	
1740130607049	0.005340576	
1740130607050	-0.004043579	
1740130607051	-0.0060272217	
1740130607052	-0.0065612793	
1740130607053	-0.005874634	
1740130607054	0.0032806396	
1740130607055	0.008468628	
1740130607056	-0.0025939941	
1740130607057	-0.01121521	
1740130607058	-0.01159668	
1740130607059	-0.008468628	
1740130607060	-0.0062561035	
1740130607061	-0.007858276	
1740130607062	-0.0048828125	
1740130607063	-0.0017547607	
1740130607064	0.004501343	
1740130607065	0.00869751	
1740130607066	0.003967285	
1740130607067	0.008544922	
1740130607068	0.006942749	
1740130607069	-0.007858276	
1740130607070	-0.014190674	
1740130607071	-0.012817383	
1740130607072	-0.011978149	
1740130607073	-0.010070801	
1740130607074	-0.0045776367	
1740130607075	0.003967285	
1740130607076	0.006866455	
1740130607077	-0.0035858154	
1740130607078	-0.0012207031	
1740130607079	0.010986328	
1740130607080	0.012130737	
1740130607081	0.020141602	
1740130607082	0.01159668	
1740130607083	-0.006713867	
1740130607084	-0.004196167	
1740130607085	-7.6293945E-5	
1740130607086	0.005340576	
1740130607087	0.0022125244	
1740130607088	-0.0075531006	
1740130607089	0.004425049	
1740130607090	0.019454956	
1740130607091	0.020217896	
1740130607092	0.008773804	
1740130607093	0.0030517578	
1740130607094	0.016326904	
1740130607095	0.007247925	
1740130607096	-0.026550293	
1740130607097	-0.027618408	
1740130607098	-0.00541687	
1740130607099	-0.029067993	
1740130607100	-0.057296753	
1740130607101	-0.03768921	
1740130607102	-0.02166748	
1740130607103	0.006790161	
1740130607104	0.026473999	
1740130607105	0.02418518	
1740130607106	0.030059814	
1740130607107	0.009918213	
1740130607108	0.010604858	
1740130607109	0.021438599	
1740130607110	0.011062622	
1740130607111	0.008544922	
1740130607112	-0.0012969971	
1740130607113	-0.0017547607	
1740130607114	0.02029419	
1740130607115	0.03425598	
1740130607116	0.017318726	
1740130607117	-0.017242432	
1740130607118	-0.026245117	
1740130607119	-0.009384155	
1740130607120	0.004272461	
1740130607121	-0.00793457	
1740130607122	-0.052719116	
1740130607123	-0.048446655	
1740130607124	-0.0065612793	
1740130607125	0.005645752	
1740130607126	0.031585693	
1740130607127	0.034866333	
1740130607128	0.011138916	
1740130607129	-0.012893677	
1740130607130	-0.059509277	
1740130607131	-0.0365448	
1740130607132	0.026931763	
1740130607133	0.02998352	
1740130607134	0.020828247	
1740130607135	0.032424927	
1740130607136	0.023880005	
1740130607137	-0.016326904	
1740130607138	-0.021438599	
1740130607139	0.0077819824	
1740130607140	0.013504028	
1740130607141	0.001373291	
1740130607142	-0.02281189	
1740130607143	-0.024032593	
1740130607144	-0.0031280518	
1740130607145	-0.0074005127	
1740130607146	-0.0032043457	
1740130607147	0.013427734	
1740130607148	0.012283325	
1740130607149	0.017318726	
1740130607150	0.029907227	
1740130607151	0.017852783	
1740130607152	-0.008010864	
1740130607153	-0.03326416	
1740130607154	-0.049438477	
1740130607155	-0.012283325	
1740130607156	0.016326904	
1740130607157	-0.0010681152	
1740130607158	0.0032806396	
1740130607159	0.0024414062	
1740130607160	-0.009155273	
1740130607161	-0.004348755	
1740130607162	-0.0017547607	
1740130607163	0.002670288	
1740130607164	0.0038146973	
1740130607165	-0.0015258789	
1740130607166	0.0051116943	
1740130607167	0.021820068	
1740130607168	0.024871826	
1740130607169	0.02128601	
1740130607170	0.017700195	
1740130607171	-3.0517578E-4	
1740130607172	-0.008926392	
1740130607173	-0.014877319	
1740130607174	-0.0132751465	
1740130607175	0.011749268	
1740130607176	0.00579834	
1740130607177	-0.028152466	
1740130607178	-0.026855469	
1740130607179	-0.016174316	
1740130607180	-0.0051116943	
1740130607181	0.011749268	
1740130607182	0.007019043	
1740130607183	0.004119873	
1740130607184	0.0016784668	
1740130607185	0.0060272217	
1740130607186	0.012588501	
1740130607187	-0.0030517578	
1740130607188	-0.010757446	
1740130607189	0.001373291	
1740130607190	-9.918213E-4	
1740130607191	-0.01449585	
1740130607192	0.0090789795	
1740130607193	0.019073486	
1740130607194	-0.017929077	
1740130607195	-0.021514893	
1740130607196	0.0012969971	
1740130607197	0.018463135	
1740130607198	0.028076172	
1740130607199	0.015487671	
1740130607200	-9.918213E-4	
1740130607201	-0.004043579	
1740130607202	7.6293945E-4	
1740130607203	0.00579834	
1740130607204	-0.010070801	
1740130607205	-0.020904541	
1740130607206	0.0033569336	
1740130607207	0.007247925	
1740130607208	-0.01953125	
1740130607209	-0.021438599	
1740130607210	-0.0050354004	
1740130607211	0.005493164	
1740130607212	0.010070801	
1740130607213	-0.0046539307	
1740130607214	-0.026779175	
1740130607215	-0.017547607	
1740130607216	0.010757446	
1740130607217	0.016937256	
1740130607218	0.012664795	
1740130607219	0.023956299	
1740130607220	0.026779175	
1740130607221	0.009994507	
1740130607222	-0.010910034	
1740130607223	-0.03189087	
1740130607224	-0.03112793	
1740130607225	-0.004043579	
1740130607226	0.011444092	
1740130607227	0.011749268	
1740130607228	0.010375977	
1740130607229	1.5258789E-4	
1740130607230	0.00289917	
1740130607231	0.0049591064	
1740130607232	0.0021362305	
1740130607233	0.0032043457	
1740130607234	0.0016784668	
1740130607235	0.0016784668	
1740130607236	-3.0517578E-4	
1740130607237	-0.004196167	
1740130607238	3.0517578E-4	
1740130607239	0.0030517578	
1740130607240	-0.0032043457	
1740130607241	-0.0029754639	
1740130607242	9.1552734E-4	
1740130607243	-0.0048828125	
1740130607244	-0.0024414062	
1740130607245	-0.0021362305	
1740130607246	-0.0035095215	
1740130607247	0.0015258789	
1740130607248	-0.0046539307	
1740130607249	-0.0051879883	
1740130607250	0.0016784668	
1740130607251	-1.5258789E-4	
1740130607252	0.002822876	
1740130607253	0.005493164	
1740130607254	-0.0025939941	
1740130607255	0.0022888184	
1740130607256	0.0059509277	
1740130607257	-3.8146973E-4	
1740130607258	0.00869751	
1740130607259	0.005493164	
1740130607260	-0.0016784668	
1740130607261	0.0	
1740130607262	-0.0018310547	
1740130607263	-0.0011444092	
1740130607264	-0.0015258789	
1740130607265	-0.001449585	
1740130607266	0.0010681152	
1740130607267	-0.0019836426	
1740130607268	-0.0032806396	
1740130607269	-0.0030517578	
1740130607270	-0.0016784668	
1740130607271	-0.002822876	
1740130607272	-0.0020599365	
1740130607273	0.005493164	
1740130607274	0.0019836426	
1740130607275	0.0022125244	
1740130607276	0.0048065186	
1740130607277	-0.0049591064	
1740130607278	-0.004272461	
1740130607279	-0.0030517578	
1740130607280	-0.006942749	
1740130607281	-0.004043579	
1740130607282	-0.0048828125	
1740130607283	-0.0030517578	
1740130607284	-8.392334E-4	
1740130607285	-0.0038146973	
1740130607286	-1.5258789E-4	
1740130607287	4.5776367E-4	
1740130607288	-0.0012969971	
1740130607289	-0.0023651123	
1740130607290	-0.004043579	
1740130607291	0.0030517578	
1740130607292	0.002746582	
1740130607293	-1.5258789E-4	
1740130607294	0.0022888184	
1740130607295	0.0038909912	
1740130607296	0.009002686	
1740130607297	0.007247925	
1740130607298	0.00289917	
1740130607299	0.0	
1740130607300	-6.1035156E-4	
1740130607301	0.0012207031	
1740130607302	-2.2888184E-4	
1740130607303	0.0016784668	
1740130607304	0.0037384033	
1740130607305	0.0051116943	
1740130607306	0.003967285	
1740130607307	-0.0038146973	
1740130607308	-0.0021362305	
1740130607309	0.0023651123	
1740130607310	-0.001373291	
1740130607311	-0.0038909912	
1740130607312	-0.0051879883	
1740130607313	-0.002746582	
1740130607314	-0.004501343	
1740130607315	-0.0065612793	
1740130607316	0.0038146973	
1740130607317	0.0010681152	
1740130607318	-0.0048065186	
1740130607319	-0.001449585	
1740130607320	-0.001449585	
1740130607321	0.0049591064	
1740130607322	0.003967285	
1740130607323	-0.0018310547	
1740130607324	-0.0019836426	
1740130607325	-0.005874634	
1740130607326	-0.004272461	
1740130607327	7.6293945E-5	
1740130607328	0.0012969971	
1740130607329	-0.0023651123	
1740130607330	0.0	
1740130607331	0.0038909912	
1740130607332	0.0016021729	
1740130607333	0.0049591064	
1740130607334	0.011138916	
1740130607335	0.0047302246	
1740130607336	-1.5258789E-4	
1740130607337	0.0046539307	
1740130607338	-4.5776367E-4	
1740130607339	-0.0029754639	
1740130607340	-0.0010681152	
1740130607341	3.8146973E-4	
1740130607342	-5.340576E-4	
1740130607343	-0.008926392	
1740130607344	-0.0016784668	
1740130607345	0.0046539307	
1740130607346	-2.2888184E-4	
1740130607347	6.1035156E-4	
1740130607348	-0.0012969971	
1740130607349	-0.0023651123	
1740130607350	0.0017547607	
1740130607351	0.004272461	
1740130607352	0.0063323975	
1740130607353	0.0016784668	
1740130607354	-0.0038146973	
1740130607355	-0.0048065186	
1740130607356	-0.0030517578	
1740130607357	0.0037384033	
1740130607358	7.6293945E-4	
1740130607359	-0.0022888184	
1740130607360	0.005874634	
1740130607361	0.0035095215	
1740130607362	3.0517578E-4	
1740130607363	0.0018310547	
1740130607364	-0.002670288	
1740130607365	-0.0036621094	
1740130607366	-0.0051116943	
1740130607367	-0.0034332275	
1740130607368	-4.5776367E-4	
1740130607369	-0.002746582	
1740130607370	-1.5258789E-4	
1740130607371	0.0022125244	
1740130607372	0.0031280518	
1740130607373	0.0037384033	
1740130607374	7.6293945E-5	
1740130607375	-0.0034332275	
1740130607376	-0.0017547607	
1740130607377	7.6293945E-5	
1740130607378	9.918213E-4	
1740130607379	0.002670288	
1740130607380	9.1552734E-4	
1740130607381	-6.866455E-4	
1740130607382	0.0037384033	
1740130607383	0.0018310547	
1740130607384	-0.0025177002	
1740130607385	-0.0016021729	
1740130607386	0.0012969971	
1740130607387	-2.2888184E-4	
1740130607388	-0.005493164	
1740130607389	-0.0021362305	
1740130607390	-0.0046539307	
1740130607391	-0.0064849854	
1740130607392	-0.0018310547	
1740130607393	-0.0032806396	
1740130607394	-0.00541687	
1740130607395	-0.0045776367	
1740130607396	-0.0025939941	
1740130607397	-0.00579834	
1740130607398	-0.0029754639	
1740130607399	-4.5776367E-4	
1740130607400	-7.6293945E-5	
1740130607401	0.006713867	
1740130607402	0.0016021729	
1740130607403	-0.0015258789	
1740130607404	0.005340576	
1740130607405	0.0020599365	
1740130607406	0.0048828125	
1740130607407	0.009002686	
1740130607408	0.002746582	
1740130607409	0.00541687	
1740130607410	0.008392334	
1740130607411	0.007858276	
1740130607412	0.0051116943	
1740130607413	-0.00289917	
1740130607414	-0.0033569336	
1740130607415	-0.004348755	
1740130607416	-0.009002686	
1740130607417	-0.0048065186	
1740130607418	5.340576E-4	
1740130607419	0.004425049	
1740130607420	0.0032806396	
1740130607421	0.0077819824	
1740130607422	0.009994507	
1740130607423	0.008010864	
1740130607424	0.0076293945	
1740130607425	0.005645752	
1740130607426	0.0073242188	
1740130607427	-9.918213E-4	
1740130607428	-0.0046539307	
1740130607429	-5.340576E-4	
1740130607430	-0.0011444092	
1740130607431	-4.5776367E-4	
1740130607432	-4.5776367E-4	
1740130607433	-0.0018310547	
1740130607434	-4.5776367E-4	
1740130607435	7.6293945E-5	
1740130607436	-0.0019836426	
1740130607437	0.0010681152	
1740130607438	-7.6293945E-4	
1740130607439	-9.918213E-4	
1740130607440	0.0022888184	
1740130607441	-0.0025177002	
1740130607442	-0.00541687	
1740130607443	-0.0022888184	
1740130607444	-0.0038146973	
1740130607445	-0.0034332275	
1740130607446	-0.0016021729	
1740130607447	5.340576E-4	
1740130607448	0.0064849854	
1740130607449	0.004119873	
1740130607450	-9.1552734E-4	
1740130607451	-0.004196167	
1740130607452	-0.006713867	
1740130607453	-0.0065612793	
1740130607454	-0.002822876	
1740130607455	0.00793457	
1740130607456	0.0017547607	
1740130607457	-0.0012207031	
1740130607458	-0.0029754639	
1740130607459	-0.0038909912	
1740130607460	-0.0025939941	
1740130607461	-0.011672974	
1740130607462	-0.010147095	
1740130607463	-0.01335144	
1740130607464	-0.008773804	
1740130607465	-0.0021362305	
1740130607466	-0.0051116943	
1740130607467	-0.005569458	
1740130607468	-0.0050354004	
1740130607469	-0.013198853	
1740130607470	0.0031280518	
1740130607471	-0.0025939941	
1740130607472	-0.0104522705	
1740130607473	0.008850098	
1740130607474	0.0012969971	
1740130607475	0.001449585	
1740130607476	0.009841919	
1740130607477	-0.001449585	
1740130607478	0.0061035156	
1740130607479	0.005264282	
1740130607480	0.0019073486	
1740130607481	0.007247925	
1740130607482	0.002746582	
1740130607483	0.0065612793	
1740130607484	0.0048828125	
1740130607485	0.009155273	
1740130607486	0.009307861	
1740130607487	0.0065612793	
1740130607488	0.0064086914	
1740130607489	0.008544922	
1740130607490	0.010147095	
1740130607491	0.009689331	
1740130607492	0.0059509277	
1740130607493	0.005722046	
1740130607494	0.0051879883	
1740130607495	0.0034332275	
1740130607496	0.0011444092	
1740130607497	0.004425049	
1740130607498	0.008163452	
1740130607499	0.0035095215	
1740130607500	0.0010681152	
1740130607501	0.002822876	
1740130607502	0.0038146973	
1740130607503	0.0023651123	
1740130607504	-0.0012969971	
1740130607505	-0.0019073486	
1740130607506	-0.002746582	
1740130607507	-0.0063323975	
1740130607508	-0.0022888184	
1740130607509	0.0035095215	
1740130607510	-0.003967285	
1740130607511	-0.012283325	
1740130607512	-0.005340576	
1740130607513	-0.0045776367	
1740130607514	-0.008163452	
1740130607515	-0.0029754639	
1740130607516	-0.009765625	
1740130607517	-0.013885498	
1740130607518	-0.004348755	
1740130607519	-0.0048828125	
1740130607520	-0.0060272217	
1740130607521	1.5258789E-4	
1740130607522	-2.2888184E-4	
1740130607523	-0.007247925	
1740130607524	-0.010299683	
1740130607525	-0.010604858	
1740130607526	-0.0030517578	
1740130607527	0.0061035156	
1740130607528	0.009994507	
1740130607529	0.009231567	
1740130607530	-2.2888184E-4	
1740130607531	-0.0018310547	
1740130607532	-0.0019073486	
1740130607533	-0.006790161	
1740130607534	-0.0032043457	
1740130607535	-0.0038909912	
1740130607536	-0.0046539307	
1740130607537	-3.8146973E-4	
1740130607538	6.866455E-4	
1740130607539	-0.0019836426	
1740130607540	-3.8146973E-4	
1740130607541	0.0020599365	
1740130607542	5.340576E-4	
1740130607543	0.002746582	
1740130607544	0.006942749	
1740130607545	0.00831604	
1740130607546	0.014877319	
1740130607547	0.0118255615	
1740130607548	0.0051879883	
1740130607549	5.340576E-4	
1740130607550	-8.392334E-4	
1740130607551	0.0074005127	
1740130607552	0.009460449	
1740130607553	0.010223389	
1740130607554	0.010147095	
1740130607555	-6.1035156E-4	
1740130607556	3.0517578E-4	
1740130607557	0.004196167	
1740130607558	1.5258789E-4	
1740130607559	-2.2888184E-4	
1740130607560	-9.1552734E-4	
1740130607561	0.0019836426	
1740130607562	0.0051879883	
1740130607563	0.0020599365	
1740130607564	0.0015258789	
1740130607565	0.002670288	
1740130607566	0.001449585	
1740130607567	-0.0016021729	
1740130607568	-9.1552734E-4	
1740130607569	-7.6293945E-4	
1740130607570	6.1035156E-4	
1740130607571	-3.0517578E-4	
1740130607572	-0.0077819824	
1740130607573	-0.007247925	
1740130607574	-0.0065612793	
1740130607575	-0.0104522705	
1740130607576	-0.007171631	
1740130607577	-0.009765625	
1740130607578	-0.013198853	
1740130607579	-0.012969971	
1740130607580	-0.007247925	
1740130607581	-0.0036621094	
1740130607582	-0.013122559	
1740130607583	-0.008010864	
1740130607584	-0.0073242188	
1740130607585	-0.012435913	
1740130607586	-0.005722046	
1740130607587	-0.008468628	
1740130607588	-0.010070801	
1740130607589	-0.0075531006	
1740130607590	-0.0037384033	
1740130607591	0.0012969971	
1740130607592	0.0025939941	
1740130607593	0.0073242188	
1740130607594	0.006790161	
1740130607595	0.010299683	
1740130607596	0.01449585	
1740130607597	0.01159668	
1740130607598	0.012664795	
1740130607599	0.015945435	
1740130607600	0.013809204	
1740130607601	0.011138916	
1740130607602	0.016098022	
1740130607603	0.016937256	
1740130607604	0.013198853	
1740130607605	0.010070801	
1740130607606	0.00289917	
1740130607607	-0.0031280518	
1740130607608	0.0059509277	
1740130607609	0.008239746	
1740130607610	0.0019073486	
1740130607611	0.0038909912	
1740130607612	0.0012207031	
1740130607613	-7.6293945E-4	
1740130607614	0.0030517578	
1740130607615	-3.0517578E-4	
1740130607616	-0.006713867	
1740130607617	-0.0050354004	
1740130607618	-0.0066375732	
1740130607619	-0.0073242188	
1740130607620	-0.004348755	
1740130607621	-0.0064086914	
1740130607622	-0.0031280518	
1740130607623	0.0035858154	
1740130607624	0.0011444092	
1740130607625	-0.0025939941	
1740130607626	-0.002822876	
1740130607627	-0.0048065186	
1740130607628	-0.004196167	
1740130607629	-0.0017547607	
1740130607630	-0.0031280518	
1740130607631	-0.0061798096	
1740130607632	-0.009384155	
1740130607633	-0.009689331	
1740130607634	-0.008544922	
1740130607635	-0.0062561035	
1740130607636	-0.0023651123	
1740130607637	-0.0012207031	
1740130607638	-0.0016021729	
1740130607639	-0.0046539307	
1740130607640	-9.1552734E-4	
1740130607641	0.0064849854	
1740130607642	0.0022888184	
1740130607643	-0.001449585	
1740130607644	4.5776367E-4	
1740130607645	0.0047302246	
1740130607646	0.0062561035	
1740130607647	6.866455E-4	
1740130607648	0.0011444092	
1740130607649	0.0012969971	
1740130607650	-4.5776367E-4	
1740130607651	0.0035095215	
1740130607652	0.0030517578	
1740130607653	9.918213E-4	
1740130607654	-7.6293945E-4	
1740130607655	-0.0025177002	
1740130607656	0.0010681152	
1740130607657	0.002670288	
1740130607658	3.0517578E-4	
1740130607659	0.0024414062	
1740130607660	0.0038909912	
1740130607661	-7.6293945E-5	
1740130607662	-0.0011444092	
1740130607663	-0.0012969971	
1740130607664	4.5776367E-4	
1740130607665	0.0047302246	
1740130607666	0.00579834	
1740130607667	-6.866455E-4	
1740130607668	-0.0073242188	
1740130607669	-0.005645752	
1740130607670	-0.008392334	
1740130607671	-0.013580322	
1740130607672	-0.009689331	
1740130607673	-0.005569458	
1740130607674	-0.0038909912	
1740130607675	-9.1552734E-4	
1740130607676	7.6293945E-5	
1740130607677	-0.0025177002	
1740130607678	-0.00793457	
1740130607679	-0.0025939941	
1740130607680	-1.5258789E-4	
1740130607681	-0.008544922	
1740130607682	-0.0020599365	
1740130607683	0.0077056885	
1740130607684	0.012435913	
1740130607685	0.007095337	
1740130607686	-6.866455E-4	
1740130607687	0.0076293945	
1740130607688	0.005874634	
1740130607689	-0.0017547607	
1740130607690	0.0050354004	
1740130607691	0.010604858	
1740130607692	0.008087158	
1740130607693	0.0076293945	
1740130607694	0.011062622	
1740130607695	0.010910034	
1740130607696	0.013580322	
1740130607697	0.008926392	
1740130607698	-9.1552734E-4	
1740130607699	-3.8146973E-4	
1740130607700	0.0036621094	
1740130607701	0.0104522705	
1740130607702	0.006866455	
1740130607703	-0.0030517578	
1740130607704	0.0019073486	
1740130607705	0.0033569336	
1740130607706	-5.340576E-4	
1740130607707	0.0037384033	
1740130607708	6.1035156E-4	
1740130607709	0.0010681152	
1740130607710	0.0022888184	
1740130607711	-0.008010864	
1740130607712	-0.010299683	
1740130607713	-0.009765625	
1740130607714	-0.012664795	
1740130607715	-0.012893677	
1740130607716	-0.011291504	
1740130607717	-0.012588501	
1740130607718	-0.011367798	
1740130607719	-0.006942749	
1740130607720	-0.0073242188	
1740130607721	-0.0019073486	
1740130607722	7.6293945E-4	
1740130607723	-9.1552734E-4	
1740130607724	0.007019043	
1740130607725	0.007247925	
1740130607726	3.0517578E-4	
1740130607727	-0.002746582	
1740130607728	-0.0063323975	
1740130607729	-0.007171631	
1740130607730	-0.007095337	
1740130607731	-0.014572144	
1740130607732	-0.013809204	
1740130607733	-0.010986328	
1740130607734	-0.013046265	
1740130607735	-0.010147095	
1740130607736	-0.0077819824	
1740130607737	-0.0063323975	
1740130607738	-0.0061035156	
1740130607739	-0.0062561035	
1740130607740	-0.0015258789	
1740130607741	0.005493164	
1740130607742	0.0062561035	
1740130607743	0.00793457	
1740130607744	0.014724731	
1740130607745	0.013656616	
1740130607746	0.016555786	
1740130607747	0.023117065	
1740130607748	0.02532959	
1740130607749	0.025558472	
1740130607750	0.027236938	
1740130607751	0.026397705	
1740130607752	0.019989014	
1740130607753	0.025253296	
1740130607754	0.025024414	
1740130607755	0.017166138	
1740130607756	0.016860962	
1740130607757	0.0046539307	
1740130607758	-0.004348755	
1740130607759	-0.00579834	
1740130607760	-0.009536743	
1740130607761	-0.010910034	
1740130607762	-0.0119018555	
1740130607763	-0.013809204	
1740130607764	-0.015640259	
1740130607765	-0.012969971	
1740130607766	-0.008163452	
1740130607767	-0.009460449	
1740130607768	-0.022125244	
1740130607769	-0.029220581	
1740130607770	-0.028305054	
1740130607771	-0.024719238	
1740130607772	-0.012054443	
1740130607773	-0.0119018555	
1740130607774	-0.021133423	
1740130607775	-0.019454956	
1740130607776	-0.012969971	
1740130607777	-0.009536743	
1740130607778	-0.0075531006	
1740130607779	-0.0051116943	
1740130607780	-3.0517578E-4	
1740130607781	0.001373291	
1740130607782	1.5258789E-4	
1740130607783	0.0019836426	
1740130607784	-0.0032806396	
1740130607785	-6.1035156E-4	
1740130607786	0.008773804	
1740130607787	0.012130737	
1740130607788	0.01373291	
1740130607789	0.015716553	
1740130607790	0.020751953	
1740130607791	0.022735596	
1740130607792	0.018234253	
1740130607793	0.01373291	
1740130607794	0.010223389	
1740130607795	0.011367798	
1740130607796	0.015487671	
1740130607797	0.015792847	
1740130607798	0.018310547	
1740130607799	0.02281189	
1740130607800	0.017929077	
1740130607801	0.0065612793	
1740130607802	0.001449585	
1740130607803	-6.866455E-4	
1740130607804	-0.0032043457	
1740130607805	-0.0035095215	
1740130607806	-0.010757446	
1740130607807	-0.013504028	
1740130607808	-0.015640259	
1740130607809	-0.026321411	
1740130607810	-0.018157959	
1740130607811	-0.014343262	
1740130607812	-0.023498535	
1740130607813	-0.013809204	
1740130607814	-0.0045776367	
1740130607815	-0.010223389	
1740130607816	-0.017623901	
1740130607817	-0.010604858	
1740130607818	-0.0038146973	
1740130607819	-0.0061035156	
1740130607820	-0.0033569336	
1740130607821	-0.004501343	
1740130607822	-0.006790161	
1740130607823	0.011749268	
1740130607824	0.02204895	
1740130607825	0.010681152	
1740130607826	0.017929077	
1740130607827	0.020370483	
1740130607828	0.015182495	
1740130607829	0.007858276	
1740130607830	-0.005340576	
1740130607831	0.002746582	
1740130607832	0.0076293945	
1740130607833	0.0066375732	
1740130607834	0.004425049	
1740130607835	0.0022888184	
1740130607836	0.0045776367	
1740130607837	0.004501343	
1740130607838	0.014419556	
1740130607839	0.023345947	
1740130607840	0.014190674	
1740130607841	0.011291504	
1740130607842	0.013961792	
1740130607843	-6.1035156E-4	
1740130607844	-0.01121521	
1740130607845	-0.01701355	
1740130607846	-0.027313232	
1740130607847	-0.025482178	
1740130607848	-0.021514893	
1740130607849	-0.017623901	
1740130607850	-0.016784668	
1740130607851	-0.016784668	
1740130607852	-0.010070801	
1740130607853	-0.01373291	
1740130607854	-0.013961792	
1740130607855	-0.01121521	
1740130607856	-0.0118255615	
1740130607857	-0.019226074	
1740130607858	-0.026779175	
1740130607859	-0.018005371	
1740130607860	-0.009460449	
1740130607861	-0.010223389	
1740130607862	-0.0015258789	
1740130607863	0.008010864	
1740130607864	0.005493164	
1740130607865	3.0517578E-4	
1740130607866	0.0090789795	
1740130607867	0.02670288	
1740130607868	0.031967163	
1740130607869	0.03036499	
1740130607870	0.026550293	
1740130607871	0.013427734	
1740130607872	0.016708374	
1740130607873	0.027694702	
1740130607874	0.015716553	
1740130607875	0.01739502	
1740130607876	0.022735596	
1740130607877	0.019378662	
1740130607878	0.027770996	
1740130607879	0.026168823	
1740130607880	0.028076172	
1740130607881	0.029754639	
1740130607882	0.021820068	
1740130607883	0.013580322	
1740130607884	-3.0517578E-4	
1740130607885	-0.013580322	
1740130607886	-0.009536743	
1740130607887	0.004272461	
1740130607888	0.002822876	
1740130607889	-0.0035858154	
1740130607890	-0.005722046	
1740130607891	-0.020523071	
1740130607892	-0.026855469	
1740130607893	-0.029220581	
1740130607894	-0.02609253	
1740130607895	-0.024032593	
1740130607896	-0.041275024	
1740130607897	-0.042266846	
1740130607898	-0.04310608	
1740130607899	-0.053024292	
1740130607900	-0.05508423	
1740130607901	-0.05836487	
1740130607902	-0.050201416	
1740130607903	-0.04486084	
1740130607904	-0.03715515	
1740130607905	-0.03135681	
1740130607906	-0.022888184	
1740130607907	-0.009155273	
1740130607908	-0.007171631	
1740130607909	0.010299683	
1740130607910	0.023117065	
1740130607911	0.019683838	
1740130607912	0.027999878	
1740130607913	0.03929138	
1740130607914	0.05470276	
1740130607915	0.06492615	
1740130607916	0.06904602	
1740130607917	0.0717926	
1740130607918	0.054626465	
1740130607919	0.03288269	
1740130607920	0.020904541	
1740130607921	0.012054443	
1740130607922	0.013580322	
1740130607923	0.020828247	
1740130607924	0.026321411	
1740130607925	0.030517578	
1740130607926	0.026321411	
1740130607927	0.009460449	
1740130607928	-0.007019043	
1740130607929	-0.0061035156	
1740130607930	0.0018310547	
1740130607931	1.5258789E-4	
1740130607932	-0.00289917	
1740130607933	0.005722046	
1740130607934	0.0090789795	
1740130607935	0.0047302246	
1740130607936	0.0022888184	
1740130607937	-0.0024414062	
1740130607938	-0.0077819824	
1740130607939	-0.016860962	
1740130607940	-0.0132751465	
1740130607941	-0.003967285	
1740130607942	-0.0045776367	
1740130607943	-0.009384155	
1740130607944	-0.014877319	
1740130607945	-0.015258789	
1740130607946	-0.00831604	
1740130607947	-0.009994507	
1740130607948	-0.020446777	
1740130607949	-0.031967163	
1740130607950	-0.04196167	
1740130607951	-0.052719116	
1740130607952	-0.055770874	
1740130607953	-0.04890442	
1740130607954	-0.038909912	
1740130607955	-0.03929138	
1740130607956	-0.04562378	
1740130607957	-0.035476685	
1740130607958	-0.0289917	
1740130607959	-0.025405884	
1740130607960	-0.027999878	
1740130607961	-0.023727417	
1740130607962	-0.010986328	
1740130607963	-0.0059509277	
1740130607964	0.016937256	
1740130607965	0.018844604	
1740130607966	0.0059509277	
1740130607967	0.011672974	
1740130607968	0.022735596	
1740130607969	0.04081726	
1740130607970	0.07026672	
1740130607971	0.07408142	
1740130607972	0.053100586	
1740130607973	0.038146973	
1740130607974	0.038528442	
1740130607975	0.046691895	
1740130607976	0.044631958	
1740130607977	0.04219055	
1740130607978	0.043563843	
1740130607979	0.045013428	
1740130607980	0.037841797	
1740130607981	0.027923584	
1740130607982	0.030288696	
1740130607983	0.027542114	
1740130607984	0.022277832	
1740130607985	0.019226074	
1740130607986	0.008544922	
1740130607987	-0.016021729	
1740130607988	-0.036315918	
1740130607989	-0.026931763	
1740130607990	-0.027236938	
1740130607991	-0.043640137	
1740130607992	-0.047836304	
1740130607993	-0.054855347	
1740130607994	-0.051345825	
1740130607995	-0.027008057	
1740130607996	-0.023269653	
1740130607997	-0.04295349	
1740130607998	-0.050048828	
1740130607999	-0.0440979	
1740130608000	-0.027923584	
1740130608001	-0.013427734	
1740130608002	-0.014953613	
1740130608003	-0.0132751465	
1740130608004	-0.009994507	
1740130608005	-0.015029907	
1740130608006	-0.020828247	
1740130608007	-0.02281189	
1740130608008	-0.0073242188	
1740130608009	0.018157959	
1740130608010	0.031661987	
1740130608011	0.03677368	
1740130608012	0.04966736	
1740130608013	0.06378174	
1740130608014	0.05607605	
1740130608015	0.035247803	
1740130608016	0.01953125	
1740130608017	0.021591187	
1740130608018	0.03036499	
1740130608019	0.028686523	
1740130608020	0.028457642	
1740130608021	0.030136108	
1740130608022	0.029449463	
1740130608023	0.017623901	
1740130608024	-0.0019836426	
1740130608025	-0.013046265	
1740130608026	-0.013046265	
1740130608027	-0.001373291	
1740130608028	-0.009460449	
1740130608029	-0.02746582	
1740130608030	-0.031433105	
1740130608031	-0.03967285	
1740130608032	-0.049362183	
1740130608033	-0.058746338	
1740130608034	-0.055236816	
1740130608035	-0.039367676	
1740130608036	-0.035858154	
1740130608037	-0.038375854	
1740130608038	-0.029449463	
1740130608039	-0.019989014	
1740130608040	-0.018234253	
1740130608041	-0.010299683	
1740130608042	-3.0517578E-4	
1740130608043	-5.340576E-4	
1740130608044	0.008621216	
1740130608045	0.018997192	
1740130608046	0.014724731	
1740130608047	0.01083374	
1740130608048	0.002822876	
1740130608049	-3.0517578E-4	
1740130608050	-0.0012207031	
1740130608051	0.0016784668	
1740130608052	0.003967285	
1740130608053	0.0035095215	
1740130608054	0.012741089	
1740130608055	0.018157959	
1740130608056	0.017929077	
1740130608057	0.02243042	
1740130608058	0.033950806	
1740130608059	0.04966736	
1740130608060	0.05218506	
1740130608061	0.050201416	
1740130608062	0.05744934	
1740130608063	0.056228638	
1740130608064	0.04989624	
1740130608065	0.04776001	
1740130608066	0.035476685	
1740130608067	0.022735596	
1740130608068	0.016326904	
1740130608069	0.010910034	
1740130608070	0.010528564	
1740130608071	0.007247925	
1740130608072	-0.00541687	
1740130608073	-0.029067993	
1740130608074	-0.04096985	
1740130608075	-0.029830933	
1740130608076	-0.03578186	
1740130608077	-0.0630188	
1740130608078	-0.077056885	
1740130608079	-0.07423401	
1740130608080	-0.07888794	
1740130608081	-0.07698059	
1740130608082	-0.061187744	
1740130608083	-0.039596558	
1740130608084	-0.014572144	
1740130608085	-0.0048065186	
1740130608086	-0.0035095215	
1740130608087	0.0020599365	
1740130608088	0.010299683	
1740130608089	0.01739502	
1740130608090	0.020141602	
1740130608091	0.019683838	
1740130608092	0.01625061	
1740130608093	0.015640259	
1740130608094	0.018920898	
1740130608095	0.025482178	
1740130608096	0.034179688	
1740130608097	0.030059814	
1740130608098	0.03387451	
1740130608099	0.03791809	
1740130608100	0.01739502	
1740130608101	-0.02204895	
1740130608102	-0.047225952	
1740130608103	-0.018310547	
1740130608104	0.019454956	
1740130608105	0.00869751	
1740130608106	-0.0064086914	
1740130608107	0.0062561035	
1740130608108	0.020751953	
1740130608109	0.03829956	
1740130608110	0.051879883	
1740130608111	0.046081543	
1740130608112	0.014953613	
1740130608113	-0.012283325	
1740130608114	0.028076172	
1740130608115	0.050735474	
1740130608116	0.025024414	
1740130608117	0.020065308	
1740130608118	-0.012283325	
1740130608119	-0.038146973	
1740130608120	-0.0037384033	
1740130608121	-0.022659302	
1740130608122	-0.07980347	
1740130608123	-0.06477356	
1740130608124	-0.039367676	
1740130608125	-0.033721924	
1740130608126	-0.01739502	
1740130608127	-0.024795532	
1740130608128	-0.058288574	
1740130608129	-0.09223938	
1740130608130	-0.07293701	
1740130608131	-0.0019073486	
1740130608132	0.022583008	
1740130608133	0.0050354004	
1740130608134	0.013122559	
1740130608135	0.0146484375	
1740130608136	0.010757446	
1740130608137	0.021209717	
1740130608138	0.028839111	
1740130608139	0.042648315	
1740130608140	0.03829956	
1740130608141	0.0046539307	
1740130608142	-0.0010681152	
1740130608143	0.007171631	
1740130608144	0.01625061	
1740130608145	0.034484863	
1740130608146	0.03387451	
1740130608147	0.023651123	
1740130608148	0.011367798	
1740130608149	-0.019989014	
1740130608150	-0.027770996	
1740130608151	0.015945435	
1740130608152	0.028533936	
1740130608153	0.023803711	
1740130608154	0.030899048	
1740130608155	0.017852783	
1740130608156	0.007171631	
1740130608157	-0.0024414062	
1740130608158	8.392334E-4	
1740130608159	0.009384155	
1740130608160	-0.008239746	
1740130608161	-0.02243042	
1740130608162	-0.027770996	
1740130608163	-0.017623901	
1740130608164	0.0022888184	
1740130608165	0.0030517578	
1740130608166	8.392334E-4	
1740130608167	0.0033569336	
1740130608168	0.0010681152	
1740130608169	-0.010757446	
1740130608170	-0.016174316	
1740130608171	-9.918213E-4	
1740130608172	0.004348755	
1740130608173	0.0062561035	
1740130608174	0.002670288	
1740130608175	-0.026855469	
1740130608176	-0.03715515	
1740130608177	-0.022583008	
1740130608178	-0.007247925	
1740130608179	0.010681152	
1740130608180	0.010528564	
1740130608181	0.015182495	
1740130608182	0.026550293	
1740130608183	0.005340576	
1740130608184	-0.0060272217	
1740130608185	-0.002670288	
1740130608186	-0.009841919	
1740130608187	0.0019836426	
1740130608188	0.014343262	
1740130608189	9.918213E-4	
1740130608190	-0.019683838	
1740130608191	-0.027999878	
1740130608192	-0.014419556	
1740130608193	0.0032806396	
1740130608194	0.009460449	
1740130608195	0.0025939941	
1740130608196	-0.021362305	
1740130608197	-0.025405884	
1740130608198	-0.002746582	
1740130608199	0.0048828125	
1740130608200	7.6293945E-5	
1740130608201	0.012054443	
1740130608202	0.012359619	
1740130608203	0.00579834	
1740130608204	0.0045776367	
1740130608205	-0.005569458	
1740130608206	0.0016021729	
1740130608207	0.004272461	
1740130608208	0.00869751	
1740130608209	0.0063323975	
1740130608210	0.0050354004	
1740130608211	0.010147095	
1740130608212	0.0035858154	
1740130608213	0.017547607	
1740130608214	0.022583008	
1740130608215	0.016098022	
1740130608216	0.0050354004	
1740130608217	-0.0045776367	
1740130608218	-0.0032806396	
1740130608219	-0.014877319	
1740130608220	-0.0025177002	
1740130608221	0.018997192	
1740130608222	0.014419556	
1740130608223	-0.001449585	
1740130608224	-0.0035858154	
1740130608225	-0.0029754639	
1740130608226	-0.00831604	
1740130608227	0.0048065186	
1740130608228	0.009002686	
1740130608229	-0.019454956	
1740130608230	-0.039749146	
1740130608231	-0.029525757	
1740130608232	0.0031280518	
1740130608233	0.01121521	
1740130608234	-0.0047302246	
1740130608235	-0.013580322	
1740130608236	-0.021362305	
1740130608237	-0.018005371	
1740130608238	0.0038909912	
1740130608239	0.00579834	
1740130608240	-0.012664795	
1740130608241	-0.022201538	
1740130608242	-0.0076293945	
1740130608243	0.013809204	
1740130608244	0.009841919	
1740130608245	0.0090789795	
1740130608246	-0.0075531006	
1740130608247	-0.024642944	
1740130608248	0.002670288	
1740130608249	4.5776367E-4	
1740130608250	-0.021896362	
1740130608251	-4.5776367E-4	
1740130608252	0.035476685	
1740130608253	0.011520386	
1740130608254	-0.03440857	
1740130608255	0.0075531006	
1740130608256	0.058441162	
1740130608257	0.04585266	
1740130608258	0.014419556	
1740130608259	-0.017623901	
1740130608260	-0.015563965	
1740130608261	-0.0064849854	
1740130608262	0.0076293945	
1740130608263	0.023727417	
1740130608264	-0.013885498	
1740130608265	-0.009841919	
1740130608266	0.023651123	
1740130608267	0.029525757	
1740130608268	0.04447937	
1740130608269	0.028915405	
1740130608270	-0.011749268	
1740130608271	-0.030975342	
1740130608272	-0.0051116943	
1740130608273	0.021209717	
1740130608274	0.015640259	
1740130608275	0.023880005	
1740130608276	0.005569458	
1740130608277	-0.025558472	
1740130608278	-0.020828247	
1740130608279	-0.036010742	
1740130608280	-0.027313232	
1740130608281	-0.011444092	
1740130608282	-0.018844604	
1740130608283	-0.011138916	
1740130608284	-0.015792847	
1740130608285	-0.0062561035	
1740130608286	-3.8146973E-4	
1740130608287	-0.009231567	
1740130608288	-0.004425049	
1740130608289	0.01083374	
1740130608290	0.015716553	
1740130608291	-0.008850098	
1740130608292	-0.022354126	
1740130608293	-0.009231567	
1740130608294	-0.031585693	
1740130608295	-0.035858154	
1740130608296	-0.0045776367	
1740130608297	3.8146973E-4	
1740130608298	0.022277832	
1740130608299	0.03227234	
1740130608300	0.012817383	
1740130608301	0.011978149	
1740130608302	0.0074005127	
1740130608303	0.015487671	
1740130608304	0.03593445	
1740130608305	0.043640137	
1740130608306	0.017852783	
1740130608307	-0.025100708	
1740130608308	-0.018005371	
1740130608309	-0.01876831	
1740130608310	-0.02319336	
1740130608311	0.016174316	
1740130608312	0.012130737	
1740130608313	-0.050430298	
1740130608314	-0.04875183	
1740130608315	-0.004425049	
1740130608316	0.006942749	
1740130608317	0.016326904	
1740130608318	0.03036499	
1740130608319	0.0440979	
1740130608320	0.04814148	
1740130608321	0.04096985	
1740130608322	0.016479492	
1740130608323	-0.020065308	
1740130608324	-0.023422241	
1740130608325	-0.027999878	
1740130608326	-0.048217773	
1740130608327	-0.027618408	
1740130608328	0.009765625	
1740130608329	0.019073486	
1740130608330	0.021514893	
1740130608331	0.03364563	
1740130608332	0.015563965	
1740130608333	-0.055770874	
1740130608334	-0.08331299	
1740130608335	-0.014419556	
1740130608336	0.0029754639	
1740130608337	-0.033798218	
1740130608338	-0.011291504	
1740130608339	-0.018463135	
1740130608340	-0.038604736	
1740130608341	0.015106201	
1740130608342	0.06278992	
1740130608343	0.04928589	
1740130608344	0.031280518	
1740130608345	0.03135681	
1740130608346	0.01777649	
1740130608347	0.016555786	
1740130608348	-0.0104522705	
1740130608349	-0.047912598	
1740130608350	-0.01914978	
1740130608351	0.017242432	
1740130608352	0.022888184	
1740130608353	0.05065918	
1740130608354	0.047683716	
1740130608355	-0.04081726	
1740130608356	-0.0566864	
1740130608357	0.0051879883	
1740130608358	-0.0031280518	
1740130608359	-0.064697266	
1740130608360	-0.07072449	
1740130608361	0.004119873	
1740130608362	0.04386902	
1740130608363	0.04585266	
1740130608364	0.050964355	
1740130608365	0.024642944	
1740130608366	0.00793457	
1740130608367	-0.03074646	
1740130608368	-0.04081726	
1740130608369	0.005340576	
1740130608370	0.03944397	
1740130608371	0.09048462	
1740130608372	0.03112793	
1740130608373	-0.08377075	
1740130608374	-0.08079529	
1740130608375	-0.036315918	
1740130608376	-6.866455E-4	
1740130608377	0.021057129	
1740130608378	0.034866333	
1740130608379	0.03189087	
1740130608380	0.02281189	
1740130608381	0.0062561035	
1740130608382	-0.018997192	
1740130608383	-0.024490356	
1740130608384	-0.0466156	
1740130608385	-0.044631958	
1740130608386	0.0118255615	
1740130608387	0.041503906	
1740130608388	0.040512085	
1740130608389	0.049209595	
1740130608390	0.020751953	
1740130608391	-0.04310608	
1740130608392	-0.05142212	
1740130608393	-0.016403198	
1740130608394	-0.04928589	
1740130608395	-0.090026855	
1740130608396	-0.03036499	
1740130608397	-5.340576E-4	
1740130608398	0.013885498	
1740130608399	0.06271362	
1740130608400	0.038375854	
1740130608401	-0.002670288	
1740130608402	-0.007247925	
1740130608403	0.022506714	
1740130608404	0.059127808	
1740130608405	0.045700073	
1740130608406	-0.016326904	
1740130608407	-0.08392334	
1740130608408	-0.069122314	
1740130608409	-0.013656616	
1740130608410	-0.019073486	
1740130608411	-0.020751953	
1740130608412	0.020904541	
1740130608413	0.09277344	
1740130608414	0.12962341	
1740130608415	0.026473999	
1740130608416	-0.08232117	
1740130608417	-0.06942749	
1740130608418	-0.008087158	
1740130608419	0.034561157	
1740130608420	0.030822754	
1740130608421	0.027389526	
1740130608422	0.056762695	
1740130608423	0.023956299	
1740130608424	0.0025939941	
1740130608425	0.024490356	
1740130608426	-0.004425049	
1740130608427	-0.015106201	
1740130608428	-0.029907227	
1740130608429	-0.013427734	
1740130608430	0.032806396	
1740130608431	-0.031051636	
1740130608432	-0.08415222	
1740130608433	-0.06889343	
1740130608434	-0.021896362	
1740130608435	0.10887146	
1740130608436	0.13916016	
1740130608437	-0.038223267	
1740130608438	-0.21690369	
1740130608439	-0.23200989	
1740130608440	-0.11924744	
1740130608441	0.018997192	
1740130608442	0.12550354	
1740130608443	0.15716553	
1740130608444	0.14198303	
1740130608445	0.08468628	
1740130608446	0.031280518	
1740130608447	-0.028076172	
1740130608448	-0.10101318	
1740130608449	-0.07987976	
1740130608450	-0.014419556	
1740130608451	0.017623901	
1740130608452	-0.009231567	
1740130608453	0.023956299	
1740130608454	0.10864258	
1740130608455	0.07797241	
1740130608456	0.018997192	
1740130608457	-0.011062622	
1740130608458	-0.027770996	
1740130608459	-0.01335144	
1740130608460	-0.059051514	
1740130608461	-0.12901306	
1740130608462	-0.032730103	
1740130608463	0.08506775	
1740130608464	-0.002670288	
1740130608465	-0.060424805	
1740130608466	0.0819397	
1740130608467	0.21385193	
1740130608468	0.22544861	
1740130608469	0.16601562	
1740130608470	0.08529663	
1740130608471	-0.072784424	
1740130608472	-0.2494049	
1740130608473	-0.28442383	
1740130608474	-0.20599365	
1740130608475	-0.11383057	
1740130608476	0.016555786	
1740130608477	0.05760193	
1740130608478	-0.048675537	
1740130608479	-0.08728027	
1740130608480	-0.07324219	
1740130608481	-0.10269165	
1740130608482	-0.21484375	
1740130608483	-0.14198303	
1740130608484	0.14251709	
1740130608485	0.1612854	
1740130608486	0.12237549	
1740130608487	0.21636963	
1740130608488	0.24795532	
1740130608489	0.22453308	
1740130608490	0.118637085	
1740130608491	0.083465576	
1740130608492	0.1108551	
1740130608493	0.041275024	
1740130608494	0.01373291	
1740130608495	0.018692017	
1740130608496	-0.012359619	
1740130608497	-0.061035156	
1740130608498	-0.097961426	
1740130608499	-0.07041931	
1740130608500	-0.07720947	
1740130608501	-0.11016846	
1740130608502	-0.06378174	
1740130608503	-0.08514404	
1740130608504	-0.18157959	
1740130608505	-0.16654968	
1740130608506	-0.08262634	
1740130608507	-0.05432129	
1740130608508	-0.097579956	
1740130608509	-0.09933472	
1740130608510	-0.0440979	
1740130608511	-0.036849976	
1740130608512	-0.120010376	
1740130608513	-0.16807556	
1740130608514	-0.035629272	
1740130608515	0.08850098	
1740130608516	0.1398468	
1740130608517	0.22270203	
1740130608518	0.19630432	
1740130608519	0.12298584	
1740130608520	0.19325256	
1740130608521	0.25810242	
1740130608522	0.21705627	
1740130608523	0.17166138	
1740130608524	0.21888733	
1740130608525	0.28182983	
1740130608526	0.19950867	
1740130608527	0.06843567	
1740130608528	-0.028381348	
1740130608529	-0.16227722	
1740130608530	-0.30921936	
1740130608531	-0.33325195	
1740130608532	-0.34095764	
1740130608533	-0.32546997	
1740130608534	-0.23269653	
1740130608535	-0.20332336	
1740130608536	-0.02609253	
1740130608537	0.23139954	
1740130608538	0.30845642	
1740130608539	0.21888733	
1740130608540	0.015106201	
1740130608541	-0.020370483	
1740130608542	-0.042495728	
1740130608543	-0.17288208	
1740130608544	-0.16014099	
1740130608545	-0.16410828	
1740130608546	-0.17814636	
1740130608547	-0.13343811	
1740130608548	-0.08491516	
1740130608549	0.03326416	
1740130608550	0.13465881	
1740130608551	0.14213562	
1740130608552	0.051956177	
1740130608553	-0.025787354	
1740130608554	0.05744934	
1740130608555	0.15670776	
1740130608556	0.14656067	
1740130608557	0.15274048	
1740130608558	0.21781921	
1740130608559	0.24681091	
1740130608560	0.16868591	
1740130608561	0.009155273	
1740130608562	-0.05996704	
1740130608563	-0.05744934	
1740130608564	-0.067214966	
1740130608565	-0.11581421	
1740130608566	-0.26771545	
1740130608567	-0.33721924	
1740130608568	-0.28137207	
1740130608569	-0.20248413	
1740130608570	-0.0566864	
1740130608571	0.016174316	
1740130608572	0.022888184	
1740130608573	0.06965637	
1740130608574	0.116119385	
1740130608575	0.24131775	
1740130608576	0.30456543	
1740130608577	0.15403748	
1740130608578	0.072631836	
1740130608579	0.073394775	
1740130608580	-0.01159668	
1740130608581	-0.012893677	
1740130608582	-0.0011444092	
1740130608583	-0.025558472	
1740130608584	-0.024642944	
1740130608585	-0.038223267	
1740130608586	-0.017318726	
1740130608587	-0.019454956	
1740130608588	-0.028686523	
1740130608589	-0.017318726	
1740130608590	-0.050354004	
1740130608591	-0.053329468	
1740130608592	-0.014801025	
1740130608593	-0.011978149	
1740130608594	-0.025100708	
1740130608595	-0.026245117	
1740130608596	-0.022735596	
1740130608597	-0.027770996	
1740130608598	-0.045318604	
1740130608599	-0.03944397	
1740130608600	-0.00289917	
1740130608601	0.019607544	
1740130608602	-0.009384155	
1740130608603	-0.025253296	
1740130608604	0.007247925	
1740130608605	0.017623901	
1740130608606	0.015716553	
1740130608607	0.0118255615	
1740130608608	-0.002822876	
1740130608609	0.016937256	
1740130608610	0.032043457	
1740130608611	0.022201538	
1740130608612	0.021362305	
1740130608613	0.012817383	
1740130608614	0.008926392	
1740130608615	0.020446777	
1740130608616	0.01777649	
1740130608617	0.005645752	
1740130608618	0.012893677	
1740130608619	0.009384155	
1740130608620	-0.020828247	
1740130608621	-0.018005371	
1740130608622	-3.8146973E-4	
1740130608623	-0.0018310547	
1740130608624	-0.0051879883	
1740130608625	-0.0030517578	
1740130608626	-0.011138916	
1740130608627	-0.015411377	
1740130608628	0.0032043457	
1740130608629	0.006866455	
1740130608630	-0.0032806396	
1740130608631	-0.0047302246	
1740130608632	-0.00579834	
1740130608633	-0.0036621094	
1740130608634	0.001373291	
1740130608635	0.008087158	
1740130608636	0.008926392	
1740130608637	3.8146973E-4	
1740130608638	-0.004501343	
1740130608639	-0.010986328	
1740130608640	-0.0076293945	
1740130608641	0.0045776367	
1740130608642	0.0011444092	
1740130608643	-0.0038146973	
1740130608644	1.5258789E-4	
1740130608645	0.0011444092	
1740130608646	-0.001373291	
1740130608647	0.0025177002	
1740130608648	-1.5258789E-4	
1740130608649	-0.0060272217	
1740130608650	-0.0035858154	
1740130608651	-0.0025177002	
1740130608652	-0.0019073486	
1740130608653	0.0019836426	
1740130608654	-0.0031280518	
1740130608655	-0.0024414062	
1740130608656	0.0016784668	
1740130608657	-6.1035156E-4	
1740130608658	0.0025939941	
1740130608659	7.6293945E-4	
1740130608660	0.002746582	
1740130608661	-4.5776367E-4	
1740130608662	0.0064849854	
1740130608663	0.011444092	
1740130608664	0.0023651123	
1740130608665	0.0012969971	
1740130608666	-0.0049591064	
1740130608667	-0.0060272217	
1740130608668	0.0016021729	
1740130608669	0.0010681152	
1740130608670	0.0060272217	
1740130608671	0.0063323975	
1740130608672	3.0517578E-4	
1740130608673	0.0061035156	
1740130608674	-0.0012969971	
1740130608675	-0.0016021729	
1740130608676	-0.005569458	
1740130608677	-0.008010864	
1740130608678	9.918213E-4	
1740130608679	-1.5258789E-4	
1740130608680	-0.0035095215	
1740130608681	-0.0025939941	
1740130608682	7.6293945E-4	
1740130608683	0.0024414062	
1740130608684	-0.0025177002	
1740130608685	0.001449585	
1740130608686	-1.5258789E-4	
1740130608687	-1.5258789E-4	
1740130608688	7.6293945E-4	
1740130608689	-0.0045776367	
1740130608690	-0.004119873	
1740130608691	0.0012969971	
1740130608692	8.392334E-4	
1740130608693	-0.003967285	
1740130608694	-2.2888184E-4	
1740130608695	0.0012969971	
1740130608696	0.0035095215	
1740130608697	0.0016021729	
1740130608698	-6.866455E-4	
1740130608699	-7.6293945E-4	
1740130608700	-0.005264282	
1740130608701	-0.009536743	
1740130608702	-0.0051116943	
1740130608703	-0.008621216	
1740130608704	-0.009307861	
1740130608705	-0.0035095215	
1740130608706	-0.0015258789	
1740130608707	9.1552734E-4	
1740130608708	3.0517578E-4	
1740130608709	0.0011444092	
1740130608710	5.340576E-4	
1740130608711	8.392334E-4	
1740130608712	0.0048828125	
1740130608713	0.007858276	
1740130608714	0.008544922	
1740130608715	0.0022888184	
1740130608716	-6.866455E-4	
1740130608717	0.009918213	
1740130608718	0.0046539307	
1740130608719	-0.004119873	
1740130608720	0.0	
1740130608721	0.004425049	
1740130608722	0.005645752	
1740130608723	-0.0016021729	
1740130608724	9.918213E-4	
1740130608725	0.004348755	
1740130608726	0.0061798096	
1740130608727	0.0048828125	
1740130608728	0.001373291	
1740130608729	-0.008163452	
1740130608730	-0.008621216	
1740130608731	-0.0020599365	
1740130608732	-0.0024414062	
1740130608733	-8.392334E-4	
1740130608734	-0.0011444092	
1740130608735	3.0517578E-4	
1740130608736	0.005645752	
1740130608737	0.005874634	
1740130608738	-0.001373291	
1740130608739	-0.0035095215	
1740130608740	-0.002746582	
1740130608741	-0.0025939941	
1740130608742	0.0038146973	
1740130608743	0.0023651123	
1740130608744	2.2888184E-4	
1740130608745	0.006790161	
1740130608746	0.0064849854	
1740130608747	0.00289917	
1740130608748	-0.0015258789	
1740130608749	-0.0035858154	
1740130608750	-0.0045776367	
1740130608751	-0.004196167	
1740130608752	0.0035095215	
1740130608753	0.010528564	
1740130608754	0.00793457	
1740130608755	0.0038909912	
1740130608756	-0.001373291	
1740130608757	-0.0020599365	
1740130608758	-0.002670288	
1740130608759	-0.0019836426	
1740130608760	0.005493164	
1740130608761	0.004196167	
1740130608762	0.005264282	
1740130608763	0.00831604	
1740130608764	0.007171631	
1740130608765	0.007171631	
1740130608766	2.2888184E-4	
1740130608767	-0.0022125244	
1740130608768	0.0045776367	
1740130608769	0.00869751	
1740130608770	0.009155273	
1740130608771	0.010910034	
1740130608772	0.012207031	
1740130608773	0.01083374	
1740130608774	0.012893677	
1740130608775	0.013198853	
1740130608776	0.009994507	
1740130608777	0.0059509277	
1740130608778	0.003967285	
1740130608779	0.0037384033	
1740130608780	-0.008010864	
1740130608781	-0.00541687	
1740130608782	-0.0060272217	
1740130608783	-0.020065308	
1740130608784	-0.028839111	
1740130608785	-0.042648315	
1740130608786	-0.052642822	
1740130608787	-0.051956177	
1740130608788	-0.05241394	
1740130608789	-0.046539307	
1740130608790	-0.061187744	
1740130608791	-0.066223145	
1740130608792	-0.03540039	
1740130608793	-0.04386902	
1740130608794	-0.03692627	
1740130608795	-0.026016235	
1740130608796	-0.015335083	
1740130608797	0.0038146973	
1740130608798	-0.0020599365	
1740130608799	0.019683838	
1740130608800	0.023269653	
1740130608801	0.030136108	
1740130608802	0.042648315	
1740130608803	0.031814575	
1740130608804	0.048599243	
1740130608805	0.036392212	
1740130608806	0.045394897	
1740130608807	0.044631958	
1740130608808	0.036621094	
1740130608809	0.062561035	
1740130608810	0.04852295	
1740130608811	0.03578186	
1740130608812	0.03517151	
1740130608813	0.02456665	
1740130608814	0.024642944	
1740130608815	0.01739502	
1740130608816	0.020523071	
1740130608817	0.022354126	
1740130608818	0.019073486	
1740130608819	0.019836426	
1740130608820	0.022506714	
1740130608821	0.015945435	
1740130608822	0.008926392	
1740130608823	0.00289917	
1740130608824	-0.0076293945	
1740130608825	-0.0076293945	
1740130608826	-0.0065612793	
1740130608827	-0.015106201	
1740130608828	-0.015487671	
1740130608829	-0.013122559	
1740130608830	-0.017700195	
1740130608831	-0.017929077	
1740130608832	-0.01625061	
1740130608833	-0.017471313	
1740130608834	-0.013427734	
1740130608835	-0.014877319	
1740130608836	-0.021209717	
1740130608837	-0.022964478	
1740130608838	-0.027694702	
1740130608839	-0.026168823	
1740130608840	-0.025100708	
1740130608841	-0.025863647	
1740130608842	-0.017623901	
1740130608843	-0.017089844	
1740130608844	-0.01953125	
1740130608845	-0.0119018555	
1740130608846	-0.00831604	
1740130608847	-0.0073242188	
1740130608848	-9.1552734E-4	
1740130608849	9.918213E-4	
1740130608850	-9.1552734E-4	
1740130608851	0.0038146973	
1740130608852	0.005340576	
1740130608853	-7.6293945E-4	
1740130608854	-6.1035156E-4	
1740130608855	-0.002670288	
1740130608856	-0.004119873	
1740130608857	-0.0016021729	
1740130608858	4.5776367E-4	
1740130608859	0.0011444092	
1740130608860	-0.0029754639	
1740130608861	0.0023651123	
1740130608862	0.0050354004	
1740130608863	0.0019836426	
1740130608864	0.0077056885	
1740130608865	0.00831604	
1740130608866	0.0119018555	
1740130608867	0.016555786	
1740130608868	0.021362305	
1740130608869	0.02861023	
1740130608870	0.027923584	
1740130608871	0.02784729	
1740130608872	0.026626587	
1740130608873	0.018615723	
1740130608874	0.00869751	
1740130608875	0.0048065186	
1740130608876	-0.004119873	
1740130608877	-0.016479492	
1740130608878	-0.012512207	
1740130608879	-0.011444092	
1740130608880	-0.01876831	
1740130608881	-0.025100708	
1740130608882	-0.029449463	
1740130608883	-0.027236938	
1740130608884	-0.018539429	
1740130608885	-0.020828247	
1740130608886	-0.020141602	
1740130608887	-0.021972656	
1740130608888	-0.034484863	
1740130608889	-0.032348633	
1740130608890	-0.025939941	
1740130608891	-0.010910034	
1740130608892	-5.340576E-4	
1740130608893	-0.01159668	
1740130608894	0.0061035156	
1740130608895	0.0064086914	
1740130608896	0.014724731	
1740130608897	0.031280518	
1740130608898	0.017700195	
1740130608899	0.023040771	
1740130608900	0.029067993	
1740130608901	0.03189087	
1740130608902	0.03326416	
1740130608903	0.027542114	
1740130608904	0.035324097	
1740130608905	0.025787354	
1740130608906	0.025405884	
1740130608907	0.024261475	
1740130608908	0.018539429	
1740130608909	0.011444092	
1740130608910	-0.0035095215	
1740130608911	-0.0063323975	
1740130608912	-0.009765625	
1740130608913	-0.005645752	
1740130608914	-0.008468628	
1740130608915	-0.021133423	
1740130608916	-0.021057129	
1740130608917	-0.020217896	
1740130608918	-0.021209717	
1740130608919	-0.014038086	
1740130608920	-0.013198853	
1740130608921	-0.0119018555	
1740130608922	-0.004425049	
1740130608923	-0.0016784668	
1740130608924	0.008239746	
1740130608925	0.010986328	
1740130608926	0.014038086	
1740130608927	0.027389526	
1740130608928	0.024871826	
1740130608929	0.032348633	
1740130608930	0.03616333	
1740130608931	0.028152466	
1740130608932	0.01953125	
1740130608933	0.0051116943	
1740130608934	0.0030517578	
1740130608935	-0.007171631	
1740130608936	-0.01777649	
1740130608937	-0.015182495	
1740130608938	-0.009765625	
1740130608939	-0.0146484375	
1740130608940	-0.013580322	
1740130608941	-0.019836426	
1740130608942	-0.02204895	
1740130608943	-0.022201538	
1740130608944	-0.022659302	
1740130608945	-0.028305054	
1740130608946	-0.02784729	
1740130608947	-0.016098022	
1740130608948	-0.021438599	
1740130608949	-0.018234253	
1740130608950	-0.0146484375	
1740130608951	-0.008850098	
1740130608952	-9.1552734E-4	
1740130608953	0.008010864	
1740130608954	0.010528564	
1740130608955	0.0077056885	
1740130608956	0.002822876	
1740130608957	0.009613037	
1740130608958	0.004348755	
1740130608959	-1.5258789E-4	
1740130608960	0.0090789795	
1740130608961	0.009918213	
1740130608962	0.014724731	
1740130608963	0.013809204	
1740130608964	0.015563965	
1740130608965	0.01663208	
1740130608966	0.014572144	
1740130608967	0.00869751	
1740130608968	0.017929077	
1740130608969	0.019454956	
1740130608970	0.02532959	
1740130608971	0.029907227	
1740130608972	0.018920898	
1740130608973	0.025787354	
1740130608974	0.023803711	
1740130608975	0.029296875	
1740130608976	0.034866333	
1740130608977	0.03303528	
1740130608978	0.03730774	
1740130608979	0.018844604	
1740130608980	3.8146973E-4	
1740130608981	-0.014038086	
1740130608982	-0.038757324	
1740130608983	-0.065078735	
1740130608984	-0.08522034	
1740130608985	-0.092163086	
1740130608986	-0.097961426	
1740130608987	-0.10383606	
1740130608988	-0.09513855	
1740130608989	-0.08148193	
1740130608990	-0.06690979	
1740130608991	-0.04425049	
1740130608992	-0.026016235	
1740130608993	-0.015182495	
1740130608994	0.010986328	
1740130608995	0.010757446	
1740130608996	0.022659302	
1740130608997	0.034179688	
1740130608998	0.036697388	
1740130608999	0.050735474	
1740130609000	0.04020691	
1740130609001	0.043792725	
1740130609002	0.048217773	
1740130609003	0.046539307	
1740130609004	0.04714966	
1740130609005	0.04058838	
1740130609006	0.03555298	
1740130609007	0.02998352	
1740130609008	0.026016235	
1740130609009	0.022583008	
1740130609010	0.01838684	
1740130609011	0.01739502	
1740130609012	0.010147095	
1740130609013	0.007019043	
1740130609014	-0.0038909912	
1740130609015	-0.005569458	
1740130609016	-0.0051879883	
1740130609017	-0.014190674	
1740130609018	-0.01335144	
1740130609019	-0.010986328	
1740130609020	-0.019683838	
1740130609021	-0.025100708	
1740130609022	-0.020828247	
1740130609023	-0.01701355	
1740130609024	-0.012741089	
1740130609025	1.5258789E-4	
1740130609026	0.01739502	
1740130609027	0.026931763	
1740130609028	0.03555298	
1740130609029	0.045318604	
1740130609030	0.047836304	
1740130609031	0.05340576	
1740130609032	0.06011963	
1740130609033	0.042800903	
1740130609034	0.037078857	
1740130609035	0.024871826	
1740130609036	0.009460449	
1740130609037	-0.0010681152	
1740130609038	-0.022125244	
1740130609039	-0.026473999	
1740130609040	-0.028457642	
1740130609041	-0.040359497	
1740130609042	-0.04043579	
1740130609043	-0.04257202	
1740130609044	-0.04348755	
1740130609045	-0.04814148	
1740130609046	-0.04310608	
1740130609047	-0.041046143	
1740130609048	-0.039901733	
1740130609049	-0.031204224	
1740130609050	-0.02357483	
1740130609051	-0.027160645	
1740130609052	-0.020523071	
1740130609053	-0.017471313	
1740130609054	-0.011062622	
1740130609055	0.0033569336	
1740130609056	-0.0015258789	
1740130609057	0.0049591064	
1740130609058	0.010910034	
1740130609059	0.005645752	
1740130609060	0.010375977	
1740130609061	0.010223389	
1740130609062	0.008544922	
1740130609063	0.004348755	
1740130609064	-5.340576E-4	
1740130609065	0.003967285	
1740130609066	0.012893677	
1740130609067	0.013122559	
1740130609068	0.008392334	
1740130609069	0.0090789795	
1740130609070	-0.0035095215	
1740130609071	-0.006790161	
1740130609072	-0.002670288	
1740130609073	-0.00541687	
1740130609074	-0.0051116943	
1740130609075	-0.004425049	
1740130609076	-0.009384155	
1740130609077	-0.005874634	
1740130609078	0.003967285	
1740130609079	0.0035858154	
1740130609080	0.00289917	
1740130609081	0.014801025	
1740130609082	0.015716553	
1740130609083	0.014572144	
1740130609084	0.022888184	
1740130609085	0.022659302	
1740130609086	0.01777649	
1740130609087	0.010681152	
1740130609088	0.012969971	
1740130609089	0.01586914	
1740130609090	0.009613037	
1740130609091	0.011520386	
1740130609092	0.013885498	
1740130609093	0.0038146973	
1740130609094	-0.0011444092	
1740130609095	0.002822876	
1740130609096	-0.0012207031	
1740130609097	-5.340576E-4	
1740130609098	6.866455E-4	
1740130609099	0.0025177002	
1740130609100	0.0016784668	
1740130609101	-6.866455E-4	
1740130609102	0.0059509277	
1740130609103	0.0025177002	
1740130609104	0.008621216	
1740130609105	0.020217896	
1740130609106	0.019378662	
1740130609107	0.0075531006	
1740130609108	-0.024719238	
1740130609109	-0.055770874	
1740130609110	-0.09628296	
1740130609111	-0.12832642	
1740130609112	-0.12939453	
1740130609113	-0.106658936	
1740130609114	-0.0743103	
1740130609115	-0.04043579	
1740130609116	0.0047302246	
1740130609117	0.044555664	
1740130609118	0.069122314	
1740130609119	0.08049011	
1740130609120	0.079422	
1740130609121	0.081100464	
1740130609122	0.07484436	
1740130609123	0.050811768	
1740130609124	0.046920776	
1740130609125	0.04837036	
1740130609126	0.044174194	
1740130609127	0.039215088	
1740130609128	0.025024414	
1740130609129	0.029144287	
1740130609130	0.026168823	
1740130609131	0.012817383	
1740130609132	0.013122559	
1740130609133	0.005569458	
1740130609134	-0.004501343	
1740130609135	-0.012969971	
1740130609136	-0.027694702	
1740130609137	-0.038375854	
1740130609138	-0.045700073	
1740130609139	-0.05508423	
1740130609140	-0.0566864	
1740130609141	-0.053329468	
1740130609142	-0.050430298	
1740130609143	-0.03555298	
1740130609144	-0.017547607	
1740130609145	-0.010223389	
1740130609146	0.002822876	
1740130609147	0.01625061	
1740130609148	0.01876831	
1740130609149	0.02357483	
1740130609150	0.026855469	
1740130609151	0.023803711	
1740130609152	0.02609253	
1740130609153	0.02532959	
1740130609154	0.018844604	
1740130609155	0.013656616	
1740130609156	0.005569458	
1740130609157	-0.0032806396	
1740130609158	-0.015563965	
1740130609159	-0.022354126	
1740130609160	-0.029678345	
1740130609161	-0.03730774	
1740130609162	-0.036468506	
1740130609163	-0.042800903	
1740130609164	-0.03440857	
1740130609165	-0.019989014	
1740130609166	-0.022735596	
1740130609167	-0.019226074	
1740130609168	-0.017318726	
1740130609169	-0.01083374	
1740130609170	-0.0036621094	
1740130609171	-0.0051879883	
1740130609172	0.00541687	
1740130609173	0.0076293945	
1740130609174	0.009918213	
1740130609175	0.032730103	
1740130609176	0.03715515	
1740130609177	0.03677368	
1740130609178	0.037994385	
1740130609179	0.031585693	
1740130609180	0.032577515	
1740130609181	0.03883362	
1740130609182	0.037002563	
1740130609183	0.032577515	
1740130609184	0.030975342	
1740130609185	0.009841919	
1740130609186	0.0010681152	
1740130609187	9.918213E-4	
1740130609188	-0.004043579	
1740130609189	-0.0033569336	
1740130609190	-0.01373291	
1740130609191	-0.016403198	
1740130609192	-0.0066375732	
1740130609193	-0.005874634	
1740130609194	-0.0046539307	
1740130609195	-0.0074768066	
1740130609196	-0.0030517578	
1740130609197	7.6293945E-4	
1740130609198	-0.004425049	
1740130609199	-0.012664795	
1740130609200	-0.008621216	
1740130609201	-0.007019043	
1740130609202	-0.012588501	
1740130609203	-0.017318726	
1740130609204	-0.014572144	
1740130609205	-0.0034332275	
1740130609206	-0.0051879883	
1740130609207	-0.0021362305	
1740130609208	0.0066375732	
1740130609209	0.014038086	
1740130609210	0.023956299	
1740130609211	0.0118255615	
1740130609212	-0.0018310547	
1740130609213	-0.016860962	
1740130609214	-0.02746582	
1740130609215	-0.022659302	
1740130609216	-0.018081665	
1740130609217	-0.012664795	
1740130609218	-0.010757446	
1740130609219	-0.016326904	
1740130609220	-0.027008057	
1740130609221	-0.03616333	
1740130609222	-0.03135681	
1740130609223	-0.026321411	
1740130609224	-0.022964478	
1740130609225	-0.01625061	
1740130609226	-0.013656616	
1740130609227	-0.012588501	
1740130609228	-0.01373291	
1740130609229	-0.006790161	
1740130609230	0.0015258789	
1740130609231	-0.0046539307	
1740130609232	-0.012130737	
1740130609233	-0.014572144	
1740130609234	-0.012130737	
1740130609235	-5.340576E-4	
1740130609236	0.022354126	
1740130609237	0.0415802	
1740130609238	0.050201416	
1740130609239	0.062332153	
1740130609240	0.06904602	
1740130609241	0.06355286	
1740130609242	0.062179565	
1740130609243	0.0579834	
1740130609244	0.042266846	
1740130609245	0.030212402	
1740130609246	0.0315094	
1740130609247	0.029525757	
1740130609248	0.016403198	
1740130609249	9.918213E-4	
1740130609250	-0.017089844	
1740130609251	-0.02204895	
1740130609252	-0.012207031	
1740130609253	-0.0060272217	
1740130609254	5.340576E-4	
1740130609255	0.01083374	
1740130609256	0.0077056885	
1740130609257	0.01411438	
1740130609258	0.012664795	
1740130609259	6.1035156E-4	
1740130609260	-0.004272461	
1740130609261	-0.015258789	
1740130609262	-0.014801025	
1740130609263	-0.024490356	
1740130609264	-0.040283203	
1740130609265	-0.044708252	
1740130609266	-0.05088806	
1740130609267	-0.03303528	
1740130609268	-0.023422241	
1740130609269	-0.031051636	
1740130609270	-0.022735596	
1740130609271	-0.016326904	
1740130609272	-0.0019073486	
1740130609273	-0.015716553	
1740130609274	-0.02998352	
1740130609275	-0.020828247	
1740130609276	-0.026245117	
1740130609277	-0.020523071	
1740130609278	-0.012207031	
1740130609279	-0.011291504	
1740130609280	-0.010604858	
1740130609281	-0.004501343	
1740130609282	0.009002686	
1740130609283	0.0075531006	
1740130609284	0.008392334	
1740130609285	0.012969971	
1740130609286	0.009384155	
1740130609287	0.012130737	
1740130609288	0.009384155	
1740130609289	0.011291504	
1740130609290	0.020751953	
1740130609291	0.018997192	
1740130609292	0.010681152	
1740130609293	5.340576E-4	
1740130609294	-0.026321411	
1740130609295	-0.050964355	
1740130609296	-0.056762695	
1740130609297	-0.049057007	
1740130609298	-0.039367676	
1740130609299	-0.04135132	
1740130609300	-0.034179688	
1740130609301	-0.011978149	
1740130609302	0.004501343	
1740130609303	0.020980835	
1740130609304	0.04043579	
1740130609305	0.058898926	
1740130609306	0.06278992	
1740130609307	0.06347656	
1740130609308	0.06530762	
1740130609309	0.066604614	
1740130609310	0.08338928	
1740130609311	0.08918762	
1740130609312	0.08682251	
1740130609313	0.08842468	
1740130609314	0.080337524	
1740130609315	0.07385254	
1740130609316	0.062942505	
1740130609317	0.04386902	
1740130609318	0.026855469	
1740130609319	0.00793457	
1740130609320	0.0031280518	
1740130609321	-0.021743774	
1740130609322	-0.055847168	
1740130609323	-0.06401062	
1740130609324	-0.0743103	
1740130609325	-0.06515503	
1740130609326	-0.06324768	
1740130609327	-0.07141113	
1740130609328	-0.06881714	
1740130609329	-0.06111145	
1740130609330	-0.06752014	
1740130609331	-0.0793457	
1740130609332	-0.07720947	
1740130609333	-0.07255554	
1740130609334	-0.06385803	
1740130609335	-0.047302246	
1740130609336	-0.037231445	
1740130609337	-0.02960205	
1740130609338	-0.022583008	
1740130609339	-0.024871826	
1740130609340	-0.021057129	
1740130609341	-0.005569458	
1740130609342	0.008087158	
1740130609343	0.01159668	
1740130609344	0.018081665	
1740130609345	0.029830933	
1740130609346	0.035858154	
1740130609347	0.03944397	
1740130609348	0.03791809	
1740130609349	0.039749146	
1740130609350	0.04386902	
1740130609351	0.043411255	
1740130609352	0.038604736	
1740130609353	0.0340271	
1740130609354	0.037002563	
1740130609355	0.045394897	
1740130609356	0.04348755	
1740130609357	0.03387451	
1740130609358	0.023956299	
1740130609359	0.0012207031	
1740130609360	-0.005645752	
1740130609361	-0.001449585	
1740130609362	-0.0048065186	
1740130609363	-0.013046265	
1740130609364	-0.024871826	
1740130609365	-0.0315094	
1740130609366	-0.028839111	
1740130609367	-0.029678345	
1740130609368	-0.030288696	
1740130609369	-0.032043457	
1740130609370	-0.023117065	
1740130609371	-0.015182495	
1740130609372	-0.02204895	
1740130609373	-0.013504028	
1740130609374	-5.340576E-4	
1740130609375	0.0063323975	
1740130609376	0.018234253	
1740130609377	0.027923584	
1740130609378	0.043411255	
1740130609379	0.05722046	
1740130609380	0.061340332	
1740130609381	0.06561279	
1740130609382	0.060043335	
1740130609383	0.054779053	
1740130609384	0.044937134	
1740130609385	0.042266846	
1740130609386	0.037612915	
1740130609387	0.011291504	
1740130609388	0.009460449	
1740130609389	0.0061798096	
1740130609390	-0.006942749	
1740130609391	-0.016784668	
1740130609392	-0.04096985	
1740130609393	-0.043792725	
1740130609394	-0.04814148	
1740130609395	-0.05683899	
1740130609396	-0.04562378	
1740130609397	-0.046463013	
1740130609398	-0.03730774	
1740130609399	-0.030212402	
1740130609400	-0.039215088	
1740130609401	-0.040130615	
1740130609402	-0.041122437	
1740130609403	-0.04585266	
1740130609404	-0.03753662	
1740130609405	-0.026168823	
1740130609406	-0.020370483	
1740130609407	-0.015945435	
1740130609408	-0.0066375732	
1740130609409	-7.6293945E-4	
1740130609410	-0.004425049	
1740130609411	-0.009994507	
1740130609412	-0.019073486	
1740130609413	-0.020751953	
1740130609414	-0.015640259	
1740130609415	-0.014419556	
1740130609416	-0.025558472	
1740130609417	-0.029220581	
1740130609418	-0.023117065	
1740130609419	-0.017852783	
1740130609420	-0.012588501	
1740130609421	0.0024414062	
1740130609422	0.019073486	
1740130609423	0.024414062	
1740130609424	0.044021606	
1740130609425	0.050811768	
1740130609426	0.05065918	
1740130609427	0.077056885	
1740130609428	0.08796692	
1740130609429	0.08705139	
1740130609430	0.090789795	
1740130609431	0.082473755	
1740130609432	0.075149536	
1740130609433	0.07110596	
1740130609434	0.069503784	
1740130609435	0.05531311	
1740130609436	0.030822754	
1740130609437	0.017242432	
1740130609438	0.0063323975	
1740130609439	-0.005569458	
1740130609440	-0.016937256	
1740130609441	-0.022506714	
1740130609442	-0.025253296	
1740130609443	-0.044021606	
1740130609444	-0.073394775	
1740130609445	-0.07133484	
1740130609446	-0.06813049	
1740130609447	-0.08232117	
1740130609448	-0.06942749	
1740130609449	-0.04119873	
1740130609450	-0.052871704	
1740130609451	-0.048446655	
1740130609452	-0.027313232	
1740130609453	-0.02571106	
1740130609454	-0.008239746	
1740130609455	-0.014801025	
1740130609456	-0.025100708	
1740130609457	-0.02998352	
1740130609458	-0.030822754	
1740130609459	0.0059509277	
1740130609460	0.028305054	
1740130609461	0.026855469	
1740130609462	0.006713867	
1740130609463	-0.013656616	
1740130609464	3.8146973E-4	
1740130609465	0.023651123	
1740130609466	0.034942627	
1740130609467	0.03715515	
1740130609468	0.024032593	
1740130609469	0.021362305	
1740130609470	0.04425049	
1740130609471	0.059432983	
1740130609472	0.06614685	
1740130609473	0.052261353	
1740130609474	0.04676819	
1740130609475	0.05744934	
1740130609476	0.043182373	
1740130609477	0.03479004	
1740130609478	0.016174316	
1740130609479	-0.021972656	
1740130609480	-0.030212402	
1740130609481	-0.031051636	
1740130609482	-0.038986206	
1740130609483	-0.048294067	
1740130609484	-0.058898926	
1740130609485	-0.06919861	
1740130609486	-0.0655365	
1740130609487	-0.054855347	
1740130609488	-0.054244995	
1740130609489	-0.061340332	
1740130609490	-0.06225586	
1740130609491	-0.047073364	
1740130609492	-0.03616333	
1740130609493	-0.01586914	
1740130609494	0.030517578	
1740130609495	0.035476685	
1740130609496	-0.0049591064	
1740130609497	-0.042877197	
1740130609498	-0.033340454	
1740130609499	0.017547607	
1740130609500	0.042266846	
1740130609501	0.07034302	
1740130609502	0.0667572	
1740130609503	0.040664673	
1740130609504	0.04798889	
1740130609505	0.039749146	
1740130609506	0.046920776	
1740130609507	0.058898926	
1740130609508	0.04585266	
1740130609509	0.03540039	
1740130609510	0.022506714	
1740130609511	0.008392334	
1740130609512	-0.013198853	
1740130609513	-0.00793457	
1740130609514	0.0035095215	
1740130609515	-0.008010864	
1740130609516	-0.008239746	
1740130609517	-0.020141602	
1740130609518	-0.026626587	
1740130609519	-0.02418518	
1740130609520	-0.022888184	
1740130609521	-3.8146973E-4	
