# OpenSignals Text File Format
# {"00:80:E1:26:A1:B0":{"sensor":["EMG"],"device name":"00:80:E1:26:A1:B0","column":["timestamp","EMG"],"sync interval":2,"time":"12:10:27","comments":"","keywords":"","device connection":"BLE00:80:E1:26:A1:B0","channels":[0],"date":"2025-02-04","mode":0,"digital IO":[],"firmware version":259,"device":"musclebanplux","position":0,"sampling rate":1000,"label":["EMG"],"resolution":[16],"special":[{}],"sleeve color":["UNKNOWN"]}}
# EndOfHeader
1738667428138	-0.017471313	
1738667428139	-0.0010681152	
1738667428140	0.015335083	
1738667428141	0.017929077	
1738667428142	0.016021729	
1738667428143	0.0032043457	
1738667428144	-0.007858276	
1738667428145	-0.03036499	
1738667428146	-0.026245117	
1738667428147	-0.0046539307	
1738667428148	8.392334E-4	
1738667428149	0.009460449	
1738667428150	0.010299683	
1738667428151	0.006713867	
1738667428152	0.007095337	
1738667428153	0.00289917	
1738667428154	-6.866455E-4	
1738667428155	-0.0016784668	
1738667428156	-9.1552734E-4	
1738667428157	0.0021362305	
1738667428158	0.017242432	
1738667428159	0.012664795	
1738667428160	9.918213E-4	
1738667428161	0.008163452	
1738667428162	0.00869751	
1738667428163	0.0038909912	
1738667428164	3.0517578E-4	
1738667428165	-0.0023651123	
1738667428166	-0.0022125244	
1738667428167	-0.008468628	
1738667428168	-0.0119018555	
1738667428169	-0.013122559	
1738667428170	-0.01663208	
1738667428171	-0.03326416	
1738667428172	-0.03440857	
1738667428173	-0.009460449	
1738667428174	-7.6293945E-4	
1738667428175	0.015716553	
1738667428176	0.034103394	
1738667428177	0.013427734	
1738667428178	3.0517578E-4	
1738667428179	0.0017547607	
1738667428180	0.004119873	
1738667428181	0.009765625	
1738667428182	0.011978149	
1738667428183	0.02319336	
1738667428184	0.022201538	
1738667428185	0.014266968	
1738667428186	0.011138916	
1738667428187	0.012969971	
1738667428188	0.03250122	
1738667428189	0.017242432	
1738667428190	-0.022659302	
1738667428191	-0.040130615	
1738667428192	-0.040512085	
1738667428193	-0.046081543	
1738667428194	-0.038757324	
1738667428195	-0.011062622	
1738667428196	-0.002822876	
1738667428197	-0.0060272217	
1738667428198	0.006713867	
1738667428199	-0.005569458	
1738667428200	-0.017929077	
1738667428201	-0.01914978	
1738667428202	-0.03425598	
1738667428203	-0.009613037	
1738667428204	0.033187866	
1738667428205	0.032730103	
1738667428206	0.036239624	
1738667428207	0.03578186	
1738667428208	0.030288696	
1738667428209	0.033340454	
1738667428210	0.026779175	
1738667428211	0.022735596	
1738667428212	0.012435913	
1738667428213	-9.1552734E-4	
1738667428214	-0.0051116943	
1738667428215	-0.0048828125	
1738667428216	-0.0029754639	
1738667428217	-0.002746582	
1738667428218	-0.01083374	
1738667428219	-0.013809204	
1738667428220	-0.007858276	
1738667428221	-0.0032043457	
1738667428222	-0.0060272217	
1738667428223	-0.01411438	
1738667428224	-0.011444092	
1738667428225	-0.016021729	
1738667428226	-0.02067566	
1738667428227	-0.009918213	
1738667428228	-0.008010864	
1738667428229	0.00579834	
1738667428230	0.006713867	
1738667428231	-0.010528564	
1738667428232	-0.007247925	
1738667428233	-0.0046539307	
1738667428234	0.012054443	
1738667428235	0.01701355	
1738667428236	0.0045776367	
1738667428237	0.009002686	
1738667428238	-0.0031280518	
1738667428239	-0.012817383	
1738667428240	-0.005874634	
1738667428241	-0.008544922	
1738667428242	0.009918213	
1738667428243	0.037078857	
1738667428244	0.02670288	
1738667428245	-0.015258789	
1738667428246	-0.04386902	
1738667428247	-0.014266968	
1738667428248	0.007019043	
1738667428249	-0.025482178	
1738667428250	-0.01838684	
1738667428251	0.006866455	
1738667428252	-0.0076293945	
1738667428253	9.1552734E-4	
1738667428254	0.022506714	
1738667428255	0.028381348	
1738667428256	0.031585693	
1738667428257	0.027008057	
1738667428258	0.016326904	
1738667428259	0.0031280518	
1738667428260	-0.009994507	
1738667428261	-0.011672974	
1738667428262	-0.0047302246	
1738667428263	0.0038909912	
1738667428264	0.0063323975	
1738667428265	0.002746582	
1738667428266	1.5258789E-4	
1738667428267	0.002822876	
1738667428268	0.009689331	
1738667428269	-0.005645752	
1738667428270	-0.010604858	
1738667428271	0.012359619	
1738667428272	-0.013427734	
1738667428273	-0.038375854	
1738667428274	0.0019073486	
1738667428275	0.0119018555	
1738667428276	-0.020217896	
1738667428277	-0.028839111	
1738667428278	-0.017852783	
1738667428279	6.1035156E-4	
1738667428280	0.0074768066	
1738667428281	-0.0061035156	
1738667428282	-0.0019073486	
1738667428283	0.022964478	
1738667428284	0.030670166	
1738667428285	0.021514893	
1738667428286	0.0146484375	
1738667428287	0.009307861	
1738667428288	0.0045776367	
1738667428289	4.5776367E-4	
1738667428290	0.0010681152	
1738667428291	-0.0017547607	
1738667428292	-0.007247925	
1738667428293	-0.0035095215	
1738667428294	0.0011444092	
1738667428295	-3.0517578E-4	
1738667428296	0.005340576	
1738667428297	0.0065612793	
1738667428298	0.0038146973	
1738667428299	0.009231567	
1738667428300	0.0062561035	
1738667428301	-0.024337769	
1738667428302	-0.047225952	
1738667428303	-0.05126953	
1738667428304	-0.041503906	
1738667428305	-0.009613037	
1738667428306	0.013580322	
1738667428307	0.030899048	
1738667428308	0.032043457	
1738667428309	0.006713867	
1738667428310	-0.024108887	
1738667428311	-0.02128601	
1738667428312	-0.012741089	
1738667428313	-0.04928589	
1738667428314	-0.027389526	
1738667428315	0.010299683	
1738667428316	0.028533936	
1738667428317	0.05821228	
1738667428318	0.047683716	
1738667428319	0.045700073	
1738667428320	0.03425598	
1738667428321	0.026321411	
1738667428322	0.045013428	
1738667428323	0.026931763	
1738667428324	0.016403198	
1738667428325	0.0046539307	
1738667428326	-0.028381348	
1738667428327	-0.015029907	
1738667428328	-0.0077819824	
1738667428329	-0.024871826	
1738667428330	-0.010375977	
1738667428331	-0.0077056885	
1738667428332	-0.014190674	
1738667428333	-0.02243042	
1738667428334	-0.029220581	
1738667428335	3.0517578E-4	
1738667428336	0.0047302246	
1738667428337	-0.018539429	
1738667428338	-0.019683838	
1738667428339	-0.012817383	
1738667428340	0.007095337	
1738667428341	0.0090789795	
1738667428342	-0.022888184	
1738667428343	-0.07354736	
1738667428344	-0.08682251	
1738667428345	-0.0031280518	
1738667428346	0.047836304	
1738667428347	0.010375977	
1738667428348	0.03501892	
1738667428349	0.042495728	
1738667428350	0.016021729	
1738667428351	0.036621094	
1738667428352	0.029678345	
1738667428353	0.01625061	
1738667428354	0.010681152	
1738667428355	0.0051116943	
1738667428356	0.023117065	
1738667428357	0.021057129	
1738667428358	-0.0019836426	
1738667428359	-0.027923584	
1738667428360	-0.03501892	
1738667428361	-0.015563965	
1738667428362	-0.0038146973	
1738667428363	0.0061035156	
1738667428364	0.014419556	
1738667428365	0.021972656	
1738667428366	0.027618408	
1738667428367	0.017700195	
1738667428368	0.014038086	
1738667428369	-9.918213E-4	
1738667428370	-0.01777649	
1738667428371	-0.0064849854	
1738667428372	-0.0076293945	
1738667428373	-0.038986206	
1738667428374	-0.07217407	
1738667428375	-0.04058838	
1738667428376	-0.01586914	
1738667428377	-0.034332275	
1738667428378	-0.012969971	
1738667428379	0.018997192	
1738667428380	0.022888184	
1738667428381	0.029220581	
1738667428382	0.027236938	
1738667428383	0.022735596	
1738667428384	0.016098022	
1738667428385	-0.0035858154	
1738667428386	-0.01159668	
1738667428387	7.6293945E-5	
1738667428388	0.016479492	
1738667428389	0.018615723	
1738667428390	0.009002686	
1738667428391	0.010147095	
1738667428392	0.002822876	
1738667428393	0.001373291	
1738667428394	0.00289917	
1738667428395	0.0047302246	
1738667428396	0.007858276	
1738667428397	0.0023651123	
1738667428398	-0.0031280518	
1738667428399	0.0021362305	
1738667428400	-3.0517578E-4	
1738667428401	-0.0062561035	
1738667428402	-0.004425049	
1738667428403	-0.007171631	
1738667428404	-0.0076293945	
1738667428405	-0.008010864	
1738667428406	-0.0061035156	
1738667428407	-0.0010681152	
1738667428408	-0.002670288	
1738667428409	-0.002746582	
1738667428410	-0.0019073486	
1738667428411	-0.0045776367	
1738667428412	-0.0020599365	
1738667428413	9.1552734E-4	
1738667428414	7.6293945E-4	
1738667428415	0.002746582	
1738667428416	0.0015258789	
1738667428417	0.005645752	
1738667428418	0.005264282	
1738667428419	-0.0022888184	
1738667428420	-6.1035156E-4	
1738667428421	-7.6293945E-4	
1738667428422	0.0015258789	
1738667428423	0.0015258789	
1738667428424	-0.0012969971	
1738667428425	3.0517578E-4	
1738667428426	-0.0038146973	
1738667428427	-1.5258789E-4	
1738667428428	0.002822876	
1738667428429	0.0012207031	
1738667428430	-0.0033569336	
1738667428431	-0.0064849854	
1738667428432	-2.2888184E-4	
1738667428433	3.8146973E-4	
1738667428434	0.002822876	
1738667428435	0.0035858154	
1738667428436	-0.0063323975	
1738667428437	1.5258789E-4	
1738667428438	0.0016021729	
1738667428439	-4.5776367E-4	
1738667428440	-3.0517578E-4	
1738667428441	0.00579834	
1738667428442	0.0061798096	
1738667428443	-0.008621216	
1738667428444	-6.1035156E-4	
1738667428445	0.005569458	
1738667428446	-0.006790161	
1738667428447	-0.005340576	
1738667428448	0.005722046	
1738667428449	0.009994507	
1738667428450	0.001373291	
1738667428451	0.0012207031	
1738667428452	0.0077056885	
1738667428453	9.1552734E-4	
1738667428454	0.0048828125	
1738667428455	0.0023651123	
1738667428456	-0.006866455	
1738667428457	-0.0030517578	
1738667428458	-0.0011444092	
1738667428459	-1.5258789E-4	
1738667428460	-0.0022125244	
1738667428461	-0.0032043457	
1738667428462	0.0034332275	
1738667428463	-6.866455E-4	
1738667428464	9.1552734E-4	
1738667428465	0.0035095215	
1738667428466	0.0025177002	
1738667428467	0.002822876	
1738667428468	-0.005645752	
1738667428469	-0.0020599365	
1738667428470	-1.5258789E-4	
1738667428471	0.0019073486	
1738667428472	0.005722046	
1738667428473	-0.0025177002	
1738667428474	-7.6293945E-5	
1738667428475	0.0019836426	
1738667428476	0.001373291	
1738667428477	9.1552734E-4	
1738667428478	-0.005493164	
1738667428479	-6.1035156E-4	
1738667428480	-0.012817383	
1738667428481	-0.017623901	
1738667428482	0.002670288	
1738667428483	0.0060272217	
1738667428484	0.0011444092	
1738667428485	0.007019043	
1738667428486	0.0090789795	
1738667428487	0.0012207031	
1738667428488	-3.8146973E-4	
1738667428489	0.0045776367	
1738667428490	0.01777649	
1738667428491	0.02418518	
1738667428492	3.8146973E-4	
1738667428493	-0.037078857	
1738667428494	-0.038223267	
1738667428495	-4.5776367E-4	
1738667428496	6.1035156E-4	
1738667428497	-0.0047302246	
1738667428498	0.010070801	
1738667428499	0.0051879883	
1738667428500	0.014190674	
1738667428501	0.016174316	
1738667428502	0.005645752	
1738667428503	0.007858276	
1738667428504	0.0025939941	
1738667428505	-0.0019836426	
1738667428506	6.1035156E-4	
1738667428507	0.002822876	
1738667428508	0.0015258789	
1738667428509	0.002670288	
1738667428510	0.0018310547	
1738667428511	-0.0104522705	
1738667428512	-0.011520386	
1738667428513	0.0	
1738667428514	0.0024414062	
1738667428515	0.0019073486	
1738667428516	-0.008239746	
1738667428517	-0.01586914	
1738667428518	-0.0025939941	
1738667428519	0.0048828125	
1738667428520	0.007019043	
1738667428521	-0.012207031	
1738667428522	-0.012130737	
1738667428523	0.009155273	
1738667428524	0.0065612793	
1738667428525	0.009155273	
1738667428526	0.006942749	
1738667428527	0.002670288	
1738667428528	0.0061798096	
1738667428529	0.0012207031	
1738667428530	0.0010681152	
1738667428531	0.0032043457	
1738667428532	-0.002670288	
1738667428533	-0.0016784668	
1738667428534	-0.006866455	
1738667428535	-0.0010681152	
1738667428536	0.004119873	
1738667428537	-0.001449585	
1738667428538	0.004348755	
1738667428539	0.004348755	
1738667428540	-0.0023651123	
1738667428541	-0.00541687	
1738667428542	-0.004348755	
1738667428543	-7.6293945E-5	
1738667428544	0.00289917	
1738667428545	-0.0061798096	
1738667428546	-0.02357483	
1738667428547	-0.005493164	
1738667428548	0.014419556	
1738667428549	0.010986328	
1738667428550	0.009384155	
1738667428551	0.005645752	
1738667428552	-0.0036621094	
1738667428553	-0.012359619	
1738667428554	-0.008392334	
1738667428555	-0.0012969971	
1738667428556	0.0059509277	
1738667428557	0.012435913	
1738667428558	0.009307861	
1738667428559	0.00541687	
1738667428560	-0.0064086914	
1738667428561	-0.004425049	
1738667428562	0.0074768066	
1738667428563	-0.007095337	
1738667428564	-0.007858276	
1738667428565	0.008239746	
1738667428566	0.007095337	
1738667428567	0.01083374	
1738667428568	0.010070801	
1738667428569	-0.012588501	
1738667428570	-0.02029419	
1738667428571	0.0021362305	
1738667428572	0.014953613	
1738667428573	0.005264282	
1738667428574	0.0074005127	
1738667428575	-0.004348755	
1738667428576	-0.038986206	
1738667428577	-0.031280518	
1738667428578	0.016555786	
1738667428579	0.01663208	
1738667428580	0.008239746	
1738667428581	0.025482178	
1738667428582	0.018081665	
1738667428583	0.014266968	
1738667428584	0.01083374	
1738667428585	-0.0048065186	
1738667428586	-0.009689331	
1738667428587	-0.0104522705	
1738667428588	-0.025253296	
1738667428589	-0.046691895	
1738667428590	-0.02708435	
1738667428591	0.012359619	
1738667428592	0.013580322	
1738667428593	0.010147095	
1738667428594	0.017242432	
1738667428595	0.006866455	
1738667428596	-0.007171631	
1738667428597	-0.0023651123	
1738667428598	0.004272461	
1738667428599	0.015563965	
1738667428600	0.027770996	
1738667428601	0.030441284	
1738667428602	0.012664795	
1738667428603	-0.005645752	
1738667428604	-0.0010681152	
1738667428605	-0.016784668	
1738667428606	-0.034866333	
1738667428607	-0.018844604	
1738667428608	-0.005874634	
1738667428609	0.001373291	
1738667428610	0.006790161	
1738667428611	-0.00541687	
1738667428612	-0.0025177002	
1738667428613	0.0047302246	
1738667428614	-0.0048828125	
1738667428615	-5.340576E-4	
1738667428616	-7.6293945E-5	
1738667428617	-0.001373291	
1738667428618	0.0065612793	
1738667428619	-6.866455E-4	
1738667428620	-0.0017547607	
1738667428621	0.0021362305	
1738667428622	4.5776367E-4	
1738667428623	0.0025177002	
1738667428624	0.0059509277	
1738667428625	-0.0015258789	
1738667428626	-0.0023651123	
1738667428627	-0.0023651123	
1738667428628	-0.0061798096	
1738667428629	0.0012969971	
1738667428630	0.0017547607	
1738667428631	0.002746582	
1738667428632	0.0019073486	
1738667428633	0.0019836426	
1738667428634	0.0059509277	
1738667428635	0.004501343	
1738667428636	0.0012207031	
1738667428637	0.004501343	
1738667428638	0.005264282	
1738667428639	0.0011444092	
1738667428640	-0.0010681152	
1738667428641	-0.0021362305	
1738667428642	-6.866455E-4	
1738667428643	-2.2888184E-4	
1738667428644	-0.006790161	
1738667428645	-0.005874634	
1738667428646	-0.0012969971	
1738667428647	0.0016784668	
1738667428648	0.0050354004	
1738667428649	0.0045776367	
1738667428650	0.0025939941	
1738667428651	-0.0018310547	
1738667428652	3.0517578E-4	
1738667428653	-1.5258789E-4	
1738667428654	0.0024414062	
1738667428655	0.007095337	
1738667428656	3.0517578E-4	
1738667428657	-1.5258789E-4	
1738667428658	-6.1035156E-4	
1738667428659	-0.0032043457	
1738667428660	-0.0019836426	
1738667428661	-0.0038146973	
1738667428662	-2.2888184E-4	
1738667428663	-0.002670288	
1738667428664	-0.0036621094	
1738667428665	7.6293945E-4	
1738667428666	-3.8146973E-4	
1738667428667	0.0021362305	
1738667428668	0.0034332275	
1738667428669	-0.0018310547	
1738667428670	-0.0063323975	
1738667428671	-0.0034332275	
1738667428672	0.0047302246	
1738667428673	0.006790161	
1738667428674	0.0045776367	
1738667428675	0.003967285	
1738667428676	-2.2888184E-4	
1738667428677	-0.01083374	
1738667428678	-0.0074005127	
1738667428679	-3.0517578E-4	
1738667428680	-0.0022125244	
1738667428681	0.004272461	
1738667428682	0.0011444092	
1738667428683	-0.0016021729	
1738667428684	0.002746582	
1738667428685	-0.0036621094	
1738667428686	-0.003967285	
1738667428687	-6.1035156E-4	
1738667428688	0.003967285	
1738667428689	0.01083374	
1738667428690	0.0035858154	
1738667428691	0.0037384033	
1738667428692	0.009384155	
1738667428693	0.0048065186	
1738667428694	0.0022125244	
1738667428695	-0.0023651123	
1738667428696	-0.0023651123	
1738667428697	0.0049591064	
1738667428698	0.0046539307	
1738667428699	-0.0038146973	
1738667428700	-0.009994507	
1738667428701	-0.014801025	
1738667428702	-0.011749268	
1738667428703	0.008239746	
1738667428704	0.02281189	
1738667428705	0.017089844	
1738667428706	-0.0076293945	
1738667428707	-0.06492615	
1738667428708	-0.06652832	
1738667428709	-0.00579834	
1738667428710	0.02532959	
1738667428711	0.042800903	
1738667428712	0.03425598	
1738667428713	0.016784668	
1738667428714	0.015106201	
1738667428715	-0.018997192	
1738667428716	-0.021057129	
1738667428717	0.017471313	
1738667428718	0.01373291	
1738667428719	0.0074005127	
1738667428720	0.0075531006	
1738667428721	-0.009155273	
1738667428722	-0.005645752	
1738667428723	-0.002746582	
1738667428724	-0.004425049	
1738667428725	-0.0024414062	
1738667428726	-0.0033569336	
1738667428727	0.01586914	
1738667428728	0.018539429	
1738667428729	0.0033569336	
1738667428730	-0.0061035156	
1738667428731	-0.015106201	
1738667428732	0.0011444092	
1738667428733	0.0018310547	
1738667428734	-0.009613037	
1738667428735	0.0059509277	
1738667428736	0.0051116943	
1738667428737	-0.001373291	
1738667428738	0.0031280518	
1738667428739	0.004196167	
1738667428740	-5.340576E-4	
1738667428741	-0.009689331	
1738667428742	-0.009307861	
1738667428743	-0.0038909912	
1738667428744	-0.0031280518	
1738667428745	-0.0015258789	
1738667428746	-0.004501343	
1738667428747	-0.0049591064	
1738667428748	-0.0065612793	
1738667428749	-0.0032806396	
1738667428750	0.0018310547	
1738667428751	-0.0063323975	
1738667428752	-0.0016784668	
1738667428753	0.008087158	
1738667428754	0.007171631	
1738667428755	-0.0020599365	
1738667428756	0.004196167	
1738667428757	0.0104522705	
1738667428758	0.0015258789	
1738667428759	-0.0029754639	
1738667428760	0.004348755	
1738667428761	0.01083374	
1738667428762	0.0064849854	
1738667428763	-5.340576E-4	
1738667428764	-0.0012969971	
1738667428765	-0.0019836426	
1738667428766	-9.918213E-4	
1738667428767	-9.1552734E-4	
1738667428768	-0.0047302246	
1738667428769	-3.0517578E-4	
1738667428770	0.0030517578	
1738667428771	-0.00289917	
1738667428772	-0.0048828125	
1738667428773	-0.0031280518	
1738667428774	0.001373291	
1738667428775	6.866455E-4	
1738667428776	-0.0025177002	
1738667428777	0.0010681152	
1738667428778	0.0012969971	
1738667428779	0.0012207031	
1738667428780	0.0031280518	
1738667428781	-0.0019073486	
1738667428782	-6.1035156E-4	
1738667428783	0.0029754639	
1738667428784	0.0021362305	
1738667428785	0.0025939941	
1738667428786	0.0010681152	
1738667428787	0.0024414062	
1738667428788	0.001373291	
1738667428789	-0.0031280518	
1738667428790	-0.002822876	
1738667428791	-0.0035095215	
1738667428792	-0.00289917	
1738667428793	0.0	
1738667428794	-0.005722046	
1738667428795	0.002822876	
1738667428796	0.011672974	
1738667428797	0.0032043457	
1738667428798	0.005264282	
1738667428799	0.002822876	
1738667428800	-0.004272461	
1738667428801	-0.0019073486	
1738667428802	-0.0036621094	
1738667428803	0.0012207031	
1738667428804	0.002746582	
1738667428805	-0.004196167	
1738667428806	0.0031280518	
1738667428807	0.007858276	
1738667428808	3.8146973E-4	
1738667428809	-0.0049591064	
1738667428810	0.0	
1738667428811	2.2888184E-4	
1738667428812	-0.00793457	
1738667428813	-0.0049591064	
1738667428814	0.0022125244	
1738667428815	-0.0061035156	
1738667428816	-0.010223389	
1738667428817	-0.004043579	
1738667428818	-0.008163452	
1738667428819	-0.0032806396	
1738667428820	0.006790161	
1738667428821	-4.5776367E-4	
1738667428822	-0.0035095215	
1738667428823	0.001449585	
1738667428824	0.011062622	
1738667428825	0.010604858	
1738667428826	4.5776367E-4	
1738667428827	0.0035095215	
1738667428828	-4.5776367E-4	
1738667428829	0.0038146973	
1738667428830	0.0119018555	
1738667428831	-0.0032043457	
1738667428832	-0.0064086914	
1738667428833	9.1552734E-4	
1738667428834	3.0517578E-4	
1738667428835	0.0036621094	
1738667428836	0.007171631	
1738667428837	0.004272461	
1738667428838	9.918213E-4	
1738667428839	-0.005493164	
1738667428840	9.1552734E-4	
1738667428841	-8.392334E-4	
1738667428842	-0.009307861	
1738667428843	-2.2888184E-4	
1738667428844	0.0023651123	
1738667428845	0.004043579	
1738667428846	0.001373291	
1738667428847	-0.0035858154	
1738667428848	0.0045776367	
1738667428849	-0.0016021729	
1738667428850	-0.0038909912	
1738667428851	9.918213E-4	
1738667428852	-7.6293945E-5	
1738667428853	-0.0016021729	
1738667428854	-0.00579834	
1738667428855	-8.392334E-4	
1738667428856	0.004272461	
1738667428857	0.0012207031	
1738667428858	-0.011367798	
1738667428859	-0.0077819824	
1738667428860	0.010681152	
1738667428861	0.00869751	
1738667428862	0.0073242188	
1738667428863	0.006942749	
1738667428864	-0.015487671	
1738667428865	-0.022201538	
1738667428866	0.004196167	
1738667428867	0.0119018555	
1738667428868	0.0010681152	
1738667428869	0.011138916	
1738667428870	0.0051116943	
1738667428871	-0.01586914	
1738667428872	-0.015487671	
1738667428873	0.0017547607	
1738667428874	0.018615723	
1738667428875	0.017242432	
1738667428876	0.010147095	
1738667428877	0.0047302246	
1738667428878	4.5776367E-4	
1738667428879	-0.0050354004	
1738667428880	0.004272461	
1738667428881	0.021896362	
1738667428882	-5.340576E-4	
1738667428883	-0.03463745	
1738667428884	-0.034484863	
1738667428885	-0.018005371	
1738667428886	-0.044937134	
1738667428887	-0.046920776	
1738667428888	0.035858154	
1738667428889	0.040130615	
1738667428890	-0.020523071	
1738667428891	-0.018081665	
1738667428892	-0.0016784668	
1738667428893	0.028152466	
1738667428894	0.03578186	
1738667428895	0.019836426	
1738667428896	0.031280518	
1738667428897	0.0146484375	
1738667428898	9.1552734E-4	
1738667428899	0.02067566	
1738667428900	0.018463135	
1738667428901	0.0032806396	
1738667428902	5.340576E-4	
1738667428903	0.0076293945	
1738667428904	-0.0032043457	
1738667428905	-0.027160645	
1738667428906	-0.015563965	
1738667428907	0.012207031	
1738667428908	0.012741089	
1738667428909	0.0062561035	
1738667428910	8.392334E-4	
1738667428911	-0.017089844	
1738667428912	-0.023040771	
1738667428913	-0.005874634	
1738667428914	0.00289917	
1738667428915	-0.024871826	
1738667428916	-0.038146973	
1738667428917	-0.015411377	
1738667428918	-0.037384033	
1738667428919	-0.03677368	
1738667428920	0.014266968	
1738667428921	0.017089844	
1738667428922	0.011138916	
1738667428923	0.022964478	
1738667428924	0.0073242188	
1738667428925	-0.0010681152	
1738667428926	0.0016021729	
1738667428927	0.011138916	
1738667428928	0.03479004	
1738667428929	0.047607422	
1738667428930	0.036621094	
1738667428931	0.007019043	
1738667428932	-0.008010864	
1738667428933	-0.023651123	
1738667428934	-0.033569336	
1738667428935	-0.01701355	
1738667428936	-0.01838684	
1738667428937	-0.021743774	
1738667428938	-0.003967285	
1738667428939	0.013809204	
1738667428940	0.017547607	
1738667428941	0.0048065186	
1738667428942	0.008087158	
1738667428943	0.010986328	
1738667428944	0.001373291	
1738667428945	0.002746582	
1738667428946	0.00289917	
1738667428947	0.0061798096	
1738667428948	0.004425049	
1738667428949	0.0032806396	
1738667428950	0.012664795	
1738667428951	0.0048828125	
1738667428952	-0.006866455	
1738667428953	-0.011672974	
1738667428954	-0.024719238	
1738667428955	-0.028915405	
1738667428956	-0.02494812	
1738667428957	-0.014572144	
1738667428958	0.0048828125	
1738667428959	0.011138916	
1738667428960	0.012817383	
1738667428961	0.011291504	
1738667428962	0.009841919	
1738667428963	0.011520386	
1738667428964	0.011520386	
1738667428965	0.0118255615	
1738667428966	8.392334E-4	
1738667428967	-0.014266968	
1738667428968	-0.014801025	
1738667428969	-0.012359619	
1738667428970	-0.0017547607	
1738667428971	0.01914978	
1738667428972	0.023422241	
1738667428973	0.0	
1738667428974	-0.018310547	
1738667428975	-0.018005371	
1738667428976	-0.012359619	
1738667428977	0.0045776367	
1738667428978	0.020980835	
1738667428979	0.01777649	
1738667428980	0.0077819824	
1738667428981	0.0036621094	
1738667428982	0.00831604	
1738667428983	0.01121521	
1738667428984	-2.2888184E-4	
1738667428985	-0.0023651123	
1738667428986	-0.003967285	
1738667428987	-0.00831604	
1738667428988	-9.918213E-4	
1738667428989	-0.005340576	
1738667428990	-0.007247925	
1738667428991	-0.0010681152	
1738667428992	-0.0012207031	
1738667428993	-0.002746582	
1738667428994	-0.0074768066	
1738667428995	3.8146973E-4	
1738667428996	0.0025177002	
1738667428997	-0.014419556	
1738667428998	-0.01663208	
1738667428999	-0.0059509277	
1738667429000	0.0023651123	
1738667429001	0.004196167	
1738667429002	0.008544922	
1738667429003	0.019302368	
1738667429004	0.010986328	
1738667429005	-0.029144287	
1738667429006	-0.047912598	
1738667429007	-0.039596558	
1738667429008	-0.005264282	
1738667429009	0.029754639	
1738667429010	0.012359619	
1738667429011	0.018005371	
1738667429012	0.035705566	
1738667429013	0.019607544	
1738667429014	0.028076172	
1738667429015	0.029754639	
1738667429016	0.021820068	
1738667429017	0.004272461	
1738667429018	-0.026473999	
1738667429019	-0.026931763	
1738667429020	-0.00579834	
1738667429021	0.015487671	
1738667429022	0.0073242188	
1738667429023	0.0045776367	
1738667429024	0.0050354004	
1738667429025	-0.0019836426	
1738667429026	-0.007095337	
1738667429027	-0.023345947	
1738667429028	-0.027694702	
1738667429029	-0.02822876	
1738667429030	-0.026550293	
1738667429031	-0.03112793	
1738667429032	-0.021591187	
1738667429033	0.0025177002	
1738667429034	0.009384155	
1738667429035	0.02281189	
1738667429036	0.021362305	
1738667429037	0.016937256	
1738667429038	0.025482178	
1738667429039	0.021972656	
1738667429040	0.017700195	
1738667429041	0.021591187	
1738667429042	0.026550293	
1738667429043	0.019683838	
1738667429044	0.00541687	
1738667429045	-0.0029754639	
1738667429046	-0.016098022	
1738667429047	-0.029296875	
1738667429048	-0.020370483	
1738667429049	-0.0035858154	
1738667429050	-0.024871826	
1738667429051	-0.038146973	
1738667429052	-0.0029754639	
1738667429053	-7.6293945E-5	
1738667429054	-0.017547607	
1738667429055	-0.0025177002	
1738667429056	0.015029907	
1738667429057	0.013961792	
1738667429058	0.0064849854	
1738667429059	0.0025939941	
1738667429060	0.0074005127	
1738667429061	-0.0104522705	
1738667429062	-0.012207031	
1738667429063	0.0048828125	
1738667429064	-0.009994507	
1738667429065	6.1035156E-4	
1738667429066	0.019760132	
1738667429067	0.015563965	
1738667429068	0.013656616	
1738667429069	0.0024414062	
1738667429070	0.012817383	
1738667429071	0.011367798	
1738667429072	-0.009918213	
1738667429073	-3.8146973E-4	
1738667429074	0.0031280518	
1738667429075	-0.0061035156	
1738667429076	-0.0023651123	
1738667429077	9.918213E-4	
1738667429078	6.1035156E-4	
1738667429079	-0.008163452	
1738667429080	-0.01991272	
1738667429081	-0.015335083	
1738667429082	-0.009841919	
1738667429083	-0.0031280518	
1738667429084	-1.5258789E-4	
1738667429085	-5.340576E-4	
1738667429086	0.02456665	
1738667429087	0.04005432	
1738667429088	0.020523071	
1738667429089	0.0063323975	
1738667429090	0.0037384033	
1738667429091	0.011978149	
1738667429092	0.015792847	
1738667429093	-0.010223389	
1738667429094	-0.041427612	
1738667429095	-0.02166748	
1738667429096	-0.012283325	
1738667429097	-0.04875183	
1738667429098	-0.021972656	
1738667429099	0.014572144	
1738667429100	-8.392334E-4	
1738667429101	0.0029754639	
1738667429102	0.009689331	
1738667429103	0.01373291	
1738667429104	0.01991272	
1738667429105	0.008239746	
1738667429106	0.012664795	
1738667429107	0.010223389	
1738667429108	-0.005645752	
1738667429109	-0.004348755	
1738667429110	-0.0018310547	
1738667429111	0.004501343	
1738667429112	0.027313232	
1738667429113	0.05180359	
1738667429114	0.036849976	
1738667429115	-0.018692017	
1738667429116	-0.040512085	
1738667429117	-0.03303528	
1738667429118	-0.042800903	
1738667429119	-0.057754517	
1738667429120	-0.036621094	
1738667429121	0.0051116943	
1738667429122	0.020904541	
1738667429123	0.016326904	
1738667429124	0.0062561035	
1738667429125	0.009002686	
1738667429126	2.2888184E-4	
1738667429127	-0.01083374	
1738667429128	0.031280518	
1738667429129	0.04119873	
1738667429130	0.015411377	
1738667429131	0.015182495	
1738667429132	0.0012207031	
1738667429133	-0.0104522705	
1738667429134	-0.007095337	
1738667429135	-0.0076293945	
1738667429136	-0.0010681152	
1738667429137	0.010147095	
1738667429138	0.009841919	
1738667429139	0.011367798	
1738667429140	0.014724731	
1738667429141	0.0022125244	
1738667429142	-0.016479492	
1738667429143	-0.022125244	
1738667429144	0.0012207031	
1738667429145	0.015640259	
1738667429146	0.005874634	
1738667429147	-0.015106201	
1738667429148	-0.036697388	
1738667429149	-0.025024414	
1738667429150	-0.008926392	
1738667429151	-0.012512207	
1738667429152	-0.018081665	
1738667429153	-0.015258789	
1738667429154	0.004196167	
1738667429155	0.015945435	
1738667429156	0.018310547	
1738667429157	0.025558472	
1738667429158	0.015029907	
1738667429159	-0.0019073486	
1738667429160	-0.0012969971	
1738667429161	0.002746582	
1738667429162	-0.0019836426	
1738667429163	-0.0031280518	
1738667429164	-0.0065612793	
1738667429165	-0.021514893	
1738667429166	-0.008850098	
1738667429167	0.012207031	
1738667429168	0.009231567	
1738667429169	0.018539429	
1738667429170	0.013656616	
1738667429171	3.0517578E-4	
1738667429172	0.0118255615	
1738667429173	0.011444092	
1738667429174	0.015182495	
1738667429175	0.017471313	
1738667429176	0.013885498	
1738667429177	0.009613037	
1738667429178	-0.019989014	
1738667429179	-0.029220581	
1738667429180	-7.6293945E-5	
1738667429181	0.013656616	
1738667429182	0.008392334	
1738667429183	0.0035095215	
1738667429184	-0.013809204	
1738667429185	-0.04234314	
1738667429186	-0.049209595	
1738667429187	-0.02204895	
1738667429188	-0.007019043	
1738667429189	-0.007247925	
1738667429190	0.01083374	
1738667429191	0.023422241	
1738667429192	0.028457642	
1738667429193	0.03326416	
1738667429194	0.009689331	
1738667429195	-0.021743774	
1738667429196	-0.023269653	
1738667429197	-0.006790161	
1738667429198	0.010299683	
1738667429199	0.015487671	
1738667429200	0.003967285	
1738667429201	-0.0048828125	
1738667429202	0.0018310547	
1738667429203	-0.0032806396	
1738667429204	0.0023651123	
1738667429205	0.027770996	
1738667429206	0.010147095	
1738667429207	-0.007019043	
1738667429208	9.918213E-4	
1738667429209	1.5258789E-4	
1738667429210	-0.00289917	
1738667429211	-0.007858276	
1738667429212	-0.0062561035	
1738667429213	0.0016784668	
1738667429214	0.0036621094	
1738667429215	-0.001449585	
1738667429216	-0.0064849854	
1738667429217	-0.011749268	
1738667429218	-0.009689331	
1738667429219	0.001449585	
1738667429220	0.0064086914	
1738667429221	0.008773804	
1738667429222	0.0073242188	
1738667429223	0.010986328	
1738667429224	0.005569458	
1738667429225	-0.012893677	
1738667429226	-0.026779175	
1738667429227	-0.025405884	
1738667429228	-0.0035858154	
1738667429229	-0.006866455	
1738667429230	-0.014266968	
1738667429231	0.0119018555	
1738667429232	0.02708435	
1738667429233	0.02357483	
1738667429234	0.005645752	
1738667429235	-0.009231567	
1738667429236	0.0015258789	
1738667429237	0.030975342	
1738667429238	0.04333496	
1738667429239	-0.0019073486	
1738667429240	-0.031280518	
1738667429241	-0.0074768066	
1738667429242	0.005264282	
1738667429243	0.009307861	
1738667429244	-0.0012969971	
1738667429245	-0.02319336	
1738667429246	-0.020599365	
1738667429247	-0.021209717	
1738667429248	-0.023040771	
1738667429249	-0.0119018555	
1738667429250	-0.013656616	
1738667429251	-6.866455E-4	
1738667429252	0.028686523	
1738667429253	0.03540039	
1738667429254	0.028152466	
1738667429255	0.0035095215	
1738667429256	-0.022735596	
1738667429257	-0.013504028	
1738667429258	0.011367798	
1738667429259	-0.0025939941	
1738667429260	-0.0060272217	
1738667429261	0.013046265	
1738667429262	0.008468628	
1738667429263	0.011978149	
1738667429264	0.012359619	
1738667429265	0.011367798	
1738667429266	0.008392334	
1738667429267	-0.002670288	
1738667429268	-0.0061035156	
1738667429269	-0.015411377	
1738667429270	-0.009231567	
1738667429271	0.0031280518	
1738667429272	0.008239746	
1738667429273	0.01663208	
1738667429274	-0.018463135	
1738667429275	-0.056762695	
1738667429276	-0.025863647	
1738667429277	0.01159668	
1738667429278	0.004119873	
1738667429279	0.006790161	
1738667429280	0.008468628	
1738667429281	-0.011749268	
1738667429282	-0.0023651123	
1738667429283	0.019226074	
1738667429284	0.012741089	
1738667429285	0.0059509277	
1738667429286	0.012664795	
1738667429287	0.009765625	
1738667429288	-3.8146973E-4	
1738667429289	-0.0064849854	
1738667429290	-6.866455E-4	
1738667429291	0.00869751	
1738667429292	-0.00869751	
1738667429293	-0.019989014	
1738667429294	-0.005569458	
1738667429295	0.013809204	
1738667429296	0.027770996	
1738667429297	0.01739502	
1738667429298	-3.0517578E-4	
1738667429299	-0.028686523	
1738667429300	-0.031585693	
1738667429301	0.0045776367	
1738667429302	0.002746582	
1738667429303	-0.01586914	
1738667429304	-0.013961792	
1738667429305	-0.012207031	
1738667429306	-7.6293945E-4	
1738667429307	-0.0021362305	
1738667429308	-0.0118255615	
1738667429309	-0.0033569336	
1738667429310	0.0045776367	
1738667429311	0.02029419	
1738667429312	0.025558472	
1738667429313	0.018005371	
1738667429314	0.018310547	
1738667429315	0.0062561035	
1738667429316	0.0033569336	
1738667429317	0.015945435	
1738667429318	0.014038086	
1738667429319	0.0061798096	
1738667429320	-0.009536743	
1738667429321	-0.020904541	
1738667429322	-0.008621216	
1738667429323	3.0517578E-4	
1738667429324	-6.1035156E-4	
1738667429325	6.866455E-4	
1738667429326	-0.0035095215	
1738667429327	0.0047302246	
1738667429328	-0.0012969971	
1738667429329	-0.0020599365	
1738667429330	0.014190674	
1738667429331	-0.0062561035	
1738667429332	-0.01449585	
1738667429333	-0.004043579	
1738667429334	-0.0118255615	
1738667429335	-0.013580322	
1738667429336	-0.01373291	
1738667429337	-0.0025939941	
1738667429338	0.0038909912	
1738667429339	-0.002822876	
1738667429340	0.0018310547	
1738667429341	0.0012207031	
1738667429342	4.5776367E-4	
1738667429343	0.0025939941	
1738667429344	0.0029754639	
1738667429345	0.008621216	
1738667429346	0.0036621094	
1738667429347	-0.0010681152	
1738667429348	0.0022125244	
1738667429349	-0.0023651123	
1738667429350	-7.6293945E-4	
1738667429351	0.0038146973	
1738667429352	3.0517578E-4	
1738667429353	0.0016784668	
1738667429354	0.0049591064	
1738667429355	0.0036621094	
1738667429356	-0.0019836426	
1738667429357	1.5258789E-4	
1738667429358	0.00541687	
1738667429359	0.0011444092	
1738667429360	-0.0036621094	
1738667429361	-0.0017547607	
1738667429362	-3.0517578E-4	
1738667429363	-0.0016021729	
1738667429364	-3.8146973E-4	
1738667429365	-0.0010681152	
1738667429366	-0.0018310547	
1738667429367	-6.866455E-4	
1738667429368	0.0048065186	
1738667429369	0.0077819824	
1738667429370	0.0015258789	
1738667429371	0.0019836426	
1738667429372	0.002746582	
1738667429373	-7.6293945E-4	
1738667429374	0.0012207031	
1738667429375	-0.0036621094	
1738667429376	-0.0035858154	
1738667429377	-0.0015258789	
1738667429378	-0.006866455	
1738667429379	-0.0038146973	
1738667429380	3.8146973E-4	
1738667429381	6.1035156E-4	
1738667429382	0.0024414062	
1738667429383	0.005493164	
1738667429384	0.006942749	
1738667429385	0.0015258789	
1738667429386	-0.0012969971	
1738667429387	0.004043579	
1738667429388	-1.5258789E-4	
1738667429389	-0.00541687	
1738667429390	0.0	
1738667429391	-6.866455E-4	
1738667429392	-0.0020599365	
1738667429393	0.002670288	
1738667429394	-0.0029754639	
1738667429395	-0.0048065186	
1738667429396	8.392334E-4	
1738667429397	-0.007019043	
1738667429398	-0.004119873	
1738667429399	0.0019836426	
1738667429400	-0.0062561035	
1738667429401	-6.866455E-4	
1738667429402	0.005722046	
1738667429403	0.002670288	
1738667429404	0.002746582	
1738667429405	0.0015258789	
1738667429406	1.5258789E-4	
1738667429407	0.0019073486	
1738667429408	-0.0015258789	
1738667429409	-0.009155273	
1738667429410	-0.005645752	
1738667429411	0.0036621094	
1738667429412	0.0025939941	
1738667429413	0.0016021729	
1738667429414	0.0059509277	
1738667429415	0.008544922	
1738667429416	0.0017547607	
1738667429417	-0.0034332275	
1738667429418	-7.6293945E-4	
1738667429419	-0.00579834	
1738667429420	-0.0061035156	
1738667429421	0.0012207031	
1738667429422	0.0019836426	
1738667429423	0.0017547607	
1738667429424	0.0034332275	
1738667429425	0.001449585	
1738667429426	0.0073242188	
1738667429427	0.0018310547	
1738667429428	-0.0029754639	
1738667429429	-0.002746582	
1738667429430	-0.0048065186	
1738667429431	0.01121521	
1738667429432	0.010070801	
1738667429433	0.00289917	
1738667429434	0.007095337	
1738667429435	-6.866455E-4	
1738667429436	-0.012207031	
1738667429437	-0.0146484375	
1738667429438	-0.007171631	
1738667429439	0.00793457	
1738667429440	0.018005371	
1738667429441	0.02204895	
1738667429442	0.01159668	
1738667429443	-0.028686523	
1738667429444	-0.053024292	
1738667429445	-0.041427612	
1738667429446	-0.011444092	
1738667429447	0.02067566	
1738667429448	0.016479492	
1738667429449	0.005493164	
1738667429450	0.013504028	
1738667429451	0.020141602	
1738667429452	0.027389526	
1738667429453	0.025558472	
1738667429454	0.0036621094	
1738667429455	-0.014572144	
1738667429456	-0.021743774	
1738667429457	-0.012588501	
1738667429458	0.012817383	
1738667429459	0.009765625	
1738667429460	-0.0077819824	
1738667429461	-0.0037384033	
1738667429462	0.0	
1738667429463	0.009765625	
1738667429464	0.022277832	
1738667429465	0.00793457	
1738667429466	-0.009002686	
1738667429467	-0.03211975	
1738667429468	-0.04508972	
1738667429469	0.0047302246	
1738667429470	0.01739502	
1738667429471	-0.010223389	
1738667429472	-0.004119873	
1738667429473	-0.010910034	
1738667429474	-0.018157959	
1738667429475	-0.01335144	
1738667429476	-0.008239746	
1738667429477	0.007171631	
1738667429478	0.015487671	
1738667429479	0.027694702	
1738667429480	0.039749146	
1738667429481	0.03303528	
1738667429482	0.010528564	
1738667429483	-0.008773804	
1738667429484	-0.017700195	
1738667429485	-0.024719238	
1738667429486	-0.007858276	
1738667429487	0.009002686	
1738667429488	0.0024414062	
1738667429489	0.0025177002	
1738667429490	0.0019073486	
1738667429491	0.0025177002	
1738667429492	0.0032806396	
1738667429493	-0.001449585	
1738667429494	3.0517578E-4	
1738667429495	-0.0022888184	
1738667429496	-0.0022125244	
1738667429497	3.8146973E-4	
1738667429498	-0.0035095215	
1738667429499	-0.0038909912	
1738667429500	-0.0045776367	
1738667429501	-0.004196167	
1738667429502	-0.0024414062	
1738667429503	-0.005645752	
1738667429504	-0.0064849854	
1738667429505	0.0	
1738667429506	0.004425049	
1738667429507	0.007858276	
1738667429508	0.00579834	
1738667429509	-0.002746582	
1738667429510	0.0012207031	
1738667429511	7.6293945E-4	
1738667429512	-0.0032043457	
1738667429513	0.004196167	
1738667429514	0.0047302246	
1738667429515	-0.00289917	
1738667429516	-0.005340576	
1738667429517	0.0012207031	
1738667429518	0.0022888184	
1738667429519	-0.0019836426	
1738667429520	0.0016784668	
1738667429521	-9.1552734E-4	
1738667429522	-0.0021362305	
1738667429523	0.002822876	
1738667429524	9.1552734E-4	
1738667429525	0.0051879883	
1738667429526	0.0011444092	
1738667429527	-0.0048828125	
1738667429528	0.0032806396	
1738667429529	1.5258789E-4	
1738667429530	-7.6293945E-4	
1738667429531	0.0021362305	
1738667429532	-0.0012207031	
1738667429533	-0.0018310547	
1738667429534	-0.0029754639	
1738667429535	-9.1552734E-4	
1738667429536	5.340576E-4	
1738667429537	0.0012207031	
1738667429538	0.004119873	
1738667429539	0.0012207031	
1738667429540	-0.0023651123	
1738667429541	3.0517578E-4	
1738667429542	-0.0012207031	
1738667429543	-0.004043579	
1738667429544	2.2888184E-4	
1738667429545	4.5776367E-4	
1738667429546	-0.0035858154	
1738667429547	-0.0035858154	
1738667429548	0.0017547607	
1738667429549	0.002822876	
1738667429550	-0.004425049	
1738667429551	0.004196167	
1738667429552	0.009613037	
1738667429553	6.1035156E-4	
1738667429554	-2.2888184E-4	
1738667429555	-0.0032806396	
1738667429556	-0.001449585	
1738667429557	-0.0016021729	
1738667429558	-0.0076293945	
1738667429559	-0.0033569336	
1738667429560	0.0019073486	
1738667429561	0.0066375732	
1738667429562	0.004272461	
1738667429563	-0.002746582	
1738667429564	-3.8146973E-4	
1738667429565	3.8146973E-4	
1738667429566	-0.0025939941	
1738667429567	3.0517578E-4	
1738667429568	0.0012969971	
1738667429569	-0.0050354004	
1738667429570	-0.0025177002	
1738667429571	0.003967285	
1738667429572	0.0020599365	
1738667429573	-0.0018310547	
1738667429574	-2.2888184E-4	
1738667429575	0.004348755	
1738667429576	-6.866455E-4	
1738667429577	0.001373291	
1738667429578	0.0019073486	
1738667429579	-0.002822876	
1738667429580	0.0036621094	
1738667429581	5.340576E-4	
1738667429582	-0.0034332275	
1738667429583	-7.6293945E-4	
1738667429584	5.340576E-4	
1738667429585	0.0035095215	
1738667429586	0.0035858154	
1738667429587	9.1552734E-4	
1738667429588	-9.918213E-4	
1738667429589	0.011138916	
1738667429590	0.009841919	
1738667429591	-0.018081665	
1738667429592	-0.02243042	
1738667429593	0.0035095215	
1738667429594	0.020980835	
1738667429595	-0.0061035156	
1738667429596	-0.037384033	
1738667429597	-0.010681152	
1738667429598	0.019836426	
1738667429599	0.021514893	
1738667429600	0.031814575	
1738667429601	0.029907227	
1738667429602	-2.2888184E-4	
1738667429603	-0.016098022	
1738667429604	-0.023498535	
1738667429605	-0.02456665	
1738667429606	-0.0066375732	
1738667429607	-0.0034332275	
1738667429608	0.012664795	
1738667429609	0.037231445	
1738667429610	0.011444092	
1738667429611	-0.018997192	
1738667429612	-0.0065612793	
1738667429613	4.5776367E-4	
1738667429614	-0.011520386	
1738667429615	0.00793457	
1738667429616	-0.007171631	
1738667429617	-0.06523132	
1738667429618	-0.034561157	
1738667429619	0.030441284	
1738667429620	0.027923584	
1738667429621	0.016326904	
1738667429622	0.005340576	
1738667429623	-0.010528564	
1738667429624	0.0025939941	
1738667429625	-0.011367798	
1738667429626	-0.022506714	
1738667429627	0.018081665	
1738667429628	0.019836426	
1738667429629	-0.0063323975	
1738667429630	-0.0073242188	
1738667429631	-0.004348755	
1738667429632	0.0061798096	
1738667429633	0.008468628	
1738667429634	0.010375977	
1738667429635	0.03753662	
1738667429636	0.031814575	
1738667429637	0.013198853	
1738667429638	0.018463135	
1738667429639	-0.0011444092	
1738667429640	-0.021896362	
1738667429641	-0.03227234	
1738667429642	-0.040740967	
1738667429643	-0.03692627	
1738667429644	-0.033187866	
1738667429645	-0.00869751	
1738667429646	0.010070801	
1738667429647	0.018157959	
1738667429648	0.027770996	
1738667429649	0.015411377	
1738667429650	0.012664795	
1738667429651	0.012741089	
1738667429652	0.0049591064	
1738667429653	0.004348755	
1738667429654	0.0022125244	
1738667429655	0.0025177002	
1738667429656	-0.0016021729	
1738667429657	-0.008087158	
1738667429658	-0.0019073486	
1738667429659	0.0015258789	
1738667429660	6.1035156E-4	
1738667429661	5.340576E-4	
1738667429662	-0.003967285	
1738667429663	-3.8146973E-4	
1738667429664	-0.0022125244	
1738667429665	-0.008392334	
1738667429666	0.0034332275	
1738667429667	0.0074005127	
1738667429668	0.0035095215	
1738667429669	0.0029754639	
1738667429670	-0.01335144	
1738667429671	-0.026779175	
1738667429672	-0.020523071	
1738667429673	-0.004196167	
1738667429674	0.022888184	
1738667429675	0.045928955	
1738667429676	0.04348755	
1738667429677	0.023956299	
1738667429678	3.8146973E-4	
1738667429679	-0.027923584	
1738667429680	-0.044937134	
1738667429681	-0.0566864	
1738667429682	-0.05859375	
1738667429683	-0.03303528	
1738667429684	-6.1035156E-4	
1738667429685	0.015945435	
1738667429686	0.018005371	
1738667429687	0.016098022	
1738667429688	0.0061798096	
1738667429689	-0.010757446	
1738667429690	-0.008850098	
1738667429691	-0.0012969971	
1738667429692	0.001373291	
1738667429693	0.014953613	
1738667429694	0.026473999	
1738667429695	0.037994385	
1738667429696	0.041046143	
1738667429697	0.031051636	
1738667429698	0.03303528	
1738667429699	0.030059814	
1738667429700	0.010681152	
1738667429701	-0.019073486	
1738667429702	-0.041046143	
1738667429703	-0.034332275	
1738667429704	-0.025253296	
1738667429705	-0.018615723	
1738667429706	0.0021362305	
1738667429707	0.0032043457	
1738667429708	-9.1552734E-4	
1738667429709	-9.918213E-4	
1738667429710	-0.017166138	
1738667429711	-0.0132751465	
1738667429712	0.0015258789	
1738667429713	0.006866455	
1738667429714	0.014343262	
1738667429715	0.011978149	
1738667429716	0.001373291	
1738667429717	-0.0075531006	
1738667429718	-0.009841919	
1738667429719	-0.0034332275	
1738667429720	-0.007019043	
1738667429721	-0.008087158	
1738667429722	0.009841919	
1738667429723	0.0051879883	
1738667429724	-0.013809204	
1738667429725	-0.013427734	
1738667429726	-0.00579834	
1738667429727	0.010757446	
1738667429728	0.02960205	
1738667429729	0.03929138	
1738667429730	0.046539307	
1738667429731	0.03616333	
1738667429732	0.0022125244	
1738667429733	-0.020523071	
1738667429734	-0.020523071	
1738667429735	-0.031204224	
1738667429736	-0.027770996	
1738667429737	-0.012741089	
1738667429738	-0.012130737	
1738667429739	0.002670288	
1738667429740	0.005569458	
1738667429741	-0.0022125244	
1738667429742	0.00831604	
1738667429743	0.010986328	
1738667429744	0.0	
1738667429745	-0.009613037	
1738667429746	-0.008010864	
1738667429747	-0.00579834	
1738667429748	0.0016784668	
1738667429749	0.0060272217	
1738667429750	9.918213E-4	
1738667429751	-0.001373291	
1738667429752	-0.0074005127	
1738667429753	-0.009002686	
1738667429754	-0.0016784668	
1738667429755	0.00831604	
1738667429756	0.021133423	
1738667429757	0.024642944	
1738667429758	0.0	
1738667429759	-0.030899048	
1738667429760	-0.035705566	
1738667429761	-0.029373169	
1738667429762	-0.021057129	
1738667429763	-0.0077819824	
1738667429764	0.01121521	
1738667429765	0.016021729	
1738667429766	0.002822876	
1738667429767	-0.0016784668	
1738667429768	0.004043579	
1738667429769	0.008163452	
1738667429770	0.0050354004	
1738667429771	-7.6293945E-5	
1738667429772	0.0090789795	
1738667429773	0.014724731	
1738667429774	-0.014190674	
1738667429775	-0.028457642	
1738667429776	-0.011749268	
1738667429777	-0.008468628	
1738667429778	-0.0025939941	
1738667429779	0.013961792	
1738667429780	0.027160645	
1738667429781	0.033950806	
1738667429782	0.029449463	
1738667429783	0.03189087	
1738667429784	0.042037964	
1738667429785	0.023956299	
1738667429786	-0.008392334	
1738667429787	-0.025405884	
1738667429788	-0.041275024	
1738667429789	-0.03616333	
1738667429790	-0.015182495	
1738667429791	-0.0118255615	
1738667429792	-0.006790161	
1738667429793	0.0048065186	
1738667429794	0.0051116943	
1738667429795	0.002746582	
1738667429796	0.0048065186	
1738667429797	0.005722046	
1738667429798	0.0050354004	
1738667429799	0.0048828125	
1738667429800	0.010223389	
1738667429801	0.023498535	
1738667429802	0.029830933	
1738667429803	0.018463135	
1738667429804	0.003967285	
1738667429805	-0.008850098	
1738667429806	-0.019760132	
1738667429807	-0.025100708	
1738667429808	-0.029067993	
1738667429809	-0.015411377	
1738667429810	0.0032043457	
1738667429811	0.0077819824	
1738667429812	0.0016784668	
1738667429813	-0.013122559	
1738667429814	-0.0077819824	
1738667429815	0.009231567	
1738667429816	0.012969971	
1738667429817	0.0061798096	
1738667429818	-0.0038909912	
1738667429819	-0.008850098	
1738667429820	-0.013961792	
1738667429821	-0.013198853	
1738667429822	-0.0018310547	
1738667429823	0.0064849854	
1738667429824	0.0035858154	
1738667429825	0.0032806396	
1738667429826	0.007858276	
1738667429827	-0.0075531006	
1738667429828	-0.014266968	
1738667429829	-9.918213E-4	
1738667429830	-0.0016784668	
1738667429831	0.0036621094	
1738667429832	0.012817383	
1738667429833	0.0074005127	
1738667429834	-0.001373291	
1738667429835	-0.008621216	
1738667429836	-0.0038909912	
1738667429837	-0.0025939941	
1738667429838	-0.01159668	
1738667429839	-0.00869751	
1738667429840	-6.1035156E-4	
1738667429841	0.0073242188	
1738667429842	0.012359619	
1738667429843	0.006790161	
1738667429844	0.004272461	
1738667429845	8.392334E-4	
1738667429846	-0.0022888184	
1738667429847	0.0012969971	
1738667429848	0.0031280518	
1738667429849	0.0077056885	
1738667429850	0.0035095215	
1738667429851	-0.0032043457	
1738667429852	-0.0037384033	
1738667429853	-0.0012969971	
1738667429854	-0.0016021729	
1738667429855	-0.004119873	
1738667429856	-0.0065612793	
1738667429857	-0.010757446	
1738667429858	6.1035156E-4	
1738667429859	0.008850098	
1738667429860	0.009613037	
1738667429861	0.019378662	
1738667429862	0.011444092	
1738667429863	-0.012893677	
1738667429864	-0.0059509277	
1738667429865	0.016784668	
1738667429866	0.015411377	
1738667429867	-0.0036621094	
1738667429868	-0.022583008	
1738667429869	-0.014190674	
1738667429870	0.0012207031	
1738667429871	0.0012207031	
1738667429872	-0.0059509277	
1738667429873	-0.012969971	
1738667429874	-0.0022125244	
1738667429875	0.018081665	
1738667429876	0.018844604	
1738667429877	0.010681152	
1738667429878	-0.0022125244	
1738667429879	-0.0119018555	
1738667429880	3.0517578E-4	
1738667429881	-0.0046539307	
1738667429882	-0.010910034	
1738667429883	0.00869751	
1738667429884	0.012588501	
1738667429885	0.0062561035	
1738667429886	-0.0038909912	
1738667429887	-0.001373291	
1738667429888	0.013198853	
1738667429889	0.0073242188	
1738667429890	0.0033569336	
1738667429891	0.002670288	
1738667429892	3.0517578E-4	
1738667429893	-0.012283325	
1738667429894	-0.019760132	
1738667429895	-0.0025177002	
1738667429896	-0.012512207	
1738667429897	-0.020370483	
1738667429898	-0.0061035156	
1738667429899	1.5258789E-4	
1738667429900	0.008163452	
1738667429901	0.0061798096	
1738667429902	0.007858276	
1738667429903	0.0051879883	
1738667429904	-0.014724731	
1738667429905	-0.010910034	
1738667429906	-0.004119873	
1738667429907	-8.392334E-4	
1738667429908	0.014724731	
1738667429909	0.010910034	
1738667429910	-0.010528564	
1738667429911	-0.020904541	
1738667429912	-0.0050354004	
1738667429913	0.013198853	
1738667429914	0.016860962	
1738667429915	0.016021729	
1738667429916	0.0064849854	
1738667429917	0.005264282	
1738667429918	0.0022888184	
1738667429919	-0.011672974	
1738667429920	2.2888184E-4	
1738667429921	0.0021362305	
1738667429922	-0.027236938	
1738667429923	-0.04585266	
1738667429924	-0.025100708	
1738667429925	0.021057129	
1738667429926	0.029830933	
1738667429927	0.023651123	
1738667429928	0.027236938	
1738667429929	0.018692017	
1738667429930	0.013809204	
1738667429931	-0.0029754639	
1738667429932	-0.02067566	
1738667429933	-0.009384155	
1738667429934	0.0033569336	
1738667429935	-0.0045776367	
1738667429936	-0.00793457	
1738667429937	-0.007019043	
1738667429938	-0.00579834	
1738667429939	0.007019043	
1738667429940	0.017547607	
1738667429941	0.024337769	
1738667429942	0.01663208	
1738667429943	0.004348755	
1738667429944	-0.0012969971	
1738667429945	-0.008621216	
1738667429946	-0.008850098	
1738667429947	-0.009918213	
1738667429948	-0.006866455	
1738667429949	-0.0012207031	
1738667429950	-0.00289917	
1738667429951	3.0517578E-4	
1738667429952	3.0517578E-4	
1738667429953	-0.001449585	
1738667429954	0.0016021729	
1738667429955	-0.0017547607	
1738667429956	-0.009460449	
1738667429957	-0.004272461	
1738667429958	0.0025939941	
1738667429959	-0.01663208	
1738667429960	-0.032348633	
1738667429961	-0.021896362	
1738667429962	-0.009384155	
1738667429963	0.0019836426	
1738667429964	0.01586914	
1738667429965	0.01159668	
1738667429966	0.010757446	
1738667429967	0.011291504	
1738667429968	-0.008239746	
1738667429969	-0.0066375732	
1738667429970	0.0048828125	
1738667429971	0.0035858154	
1738667429972	0.006942749	
1738667429973	0.008087158	
1738667429974	0.016784668	
1738667429975	0.022506714	
1738667429976	0.015106201	
1738667429977	0.012893677	
1738667429978	0.0066375732	
1738667429979	-0.0016784668	
1738667429980	0.0019073486	
1738667429981	-0.0018310547	
1738667429982	-0.011672974	
1738667429983	-0.01083374	
1738667429984	-0.005493164	
1738667429985	0.0015258789	
1738667429986	-0.0050354004	
1738667429987	-0.041885376	
1738667429988	-0.060195923	
1738667429989	-0.020904541	
1738667429990	-0.006790161	
1738667429991	-0.012054443	
1738667429992	0.006942749	
1738667429993	0.010910034	
1738667429994	0.0146484375	
1738667429995	0.015792847	
1738667429996	0.01914978	
1738667429997	0.03425598	
1738667429998	0.023269653	
1738667429999	0.0073242188	
1738667430000	-0.001373291	
1738667430001	0.0019073486	
1738667430002	0.015411377	
1738667430003	0.009002686	
1738667430004	0.0022888184	
1738667430005	0.0024414062	
1738667430006	-0.0022125244	
1738667430007	-0.009155273	
1738667430008	-0.015716553	
1738667430009	-7.6293945E-5	
1738667430010	0.0146484375	
1738667430011	0.007095337	
1738667430012	0.016784668	
1738667430013	0.012130737	
1738667430014	-0.013504028	
1738667430015	0.009689331	
1738667430016	0.025177002	
1738667430017	-0.006866455	
1738667430018	-0.010299683	
1738667430019	-0.012893677	
1738667430020	-0.038604736	
1738667430021	-0.03074646	
1738667430022	-0.016174316	
1738667430023	-0.01373291	
1738667430024	-5.340576E-4	
1738667430025	0.015258789	
1738667430026	0.018310547	
1738667430027	0.010910034	
1738667430028	0.0016021729	
1738667430029	-0.014038086	
1738667430030	-0.015716553	
1738667430031	0.005264282	
1738667430032	0.0037384033	
1738667430033	-0.0051116943	
1738667430034	0.0038146973	
1738667430035	-0.005264282	
1738667430036	-0.006713867	
1738667430037	0.0032043457	
1738667430038	-0.0019836426	
1738667430039	0.00831604	
1738667430040	0.019836426	
1738667430041	0.010910034	
1738667430042	-0.0032806396	
1738667430043	-0.0034332275	
1738667430044	0.002746582	
1738667430045	-0.02166748	
1738667430046	-0.06515503	
1738667430047	-0.04714966	
1738667430048	0.03036499	
1738667430049	0.05203247	
1738667430050	0.01701355	
1738667430051	0.0076293945	
1738667430052	0.0075531006	
1738667430053	0.006866455	
1738667430054	0.009231567	
1738667430055	0.0032043457	
1738667430056	0.013504028	
1738667430057	0.01449585	
1738667430058	0.0022125244	
1738667430059	-0.028381348	
1738667430060	-0.053863525	
1738667430061	0.015029907	
1738667430062	0.047073364	
1738667430063	-0.0018310547	
1738667430064	0.008850098	
1738667430065	0.007247925	
1738667430066	-0.014877319	
1738667430067	-0.0051116943	
1738667430068	0.0063323975	
1738667430069	0.01373291	
1738667430070	-0.008392334	
1738667430071	-0.0064086914	
1738667430072	0.0077056885	
1738667430073	-0.018005371	
1738667430074	-0.025787354	
1738667430075	-0.009994507	
1738667430076	0.0074768066	
1738667430077	-0.0016784668	
1738667430078	-0.012130737	
1738667430079	0.013504028	
1738667430080	0.022125244	
1738667430081	0.012435913	
1738667430082	0.0047302246	
1738667430083	-0.006713867	
1738667430084	-0.0021362305	
1738667430085	0.008239746	
1738667430086	0.0035095215	
1738667430087	-0.015335083	
1738667430088	-0.013427734	
1738667430089	0.010528564	
1738667430090	0.01121521	
1738667430091	0.0132751465	
1738667430092	0.013656616	
1738667430093	-0.010910034	
1738667430094	-0.01586914	
1738667430095	-0.0012207031	
1738667430096	0.005493164	
1738667430097	0.007247925	
1738667430098	0.014877319	
1738667430099	0.023651123	
1738667430100	0.018234253	
1738667430101	0.00831604	
1738667430102	0.006866455	
1738667430103	-0.0018310547	
1738667430104	-0.039215088	
1738667430105	-0.06462097	
1738667430106	-0.05050659	
1738667430107	-0.032806396	
1738667430108	-6.866455E-4	
1738667430109	0.023498535	
1738667430110	0.014877319	
1738667430111	0.01953125	
1738667430112	0.027313232	
1738667430113	0.026779175	
1738667430114	0.0104522705	
1738667430115	-0.035705566	
1738667430116	-0.05256653	
1738667430117	-0.014953613	
1738667430118	0.0090789795	
1738667430119	0.009918213	
1738667430120	0.004119873	
1738667430121	0.0037384033	
1738667430122	0.029373169	
1738667430123	0.027999878	
1738667430124	0.01449585	
1738667430125	0.034866333	
1738667430126	0.019073486	
1738667430127	-0.002746582	
1738667430128	0.008239746	
1738667430129	-0.03364563	
1738667430130	-0.07232666	
1738667430131	-0.030517578	
1738667430132	-0.014190674	
1738667430133	-0.0440979	
1738667430134	-0.020904541	
1738667430135	0.010070801	
1738667430136	0.021438599	
1738667430137	0.032348633	
1738667430138	0.030593872	
1738667430139	0.04135132	
1738667430140	0.026931763	
1738667430141	0.013046265	
1738667430142	0.02166748	
1738667430143	0.019683838	
1738667430144	0.022354126	
1738667430145	-0.0019836426	
1738667430146	-0.020523071	
1738667430147	-0.017242432	
1738667430148	-0.024108887	
1738667430149	-0.008926392	
1738667430150	3.8146973E-4	
1738667430151	-0.0060272217	
1738667430152	-0.0051116943	
1738667430153	-0.0032043457	
1738667430154	-0.0023651123	
1738667430155	-0.026855469	
1738667430156	-0.03326416	
1738667430157	-0.014343262	
1738667430158	-0.007247925	
1738667430159	0.009231567	
1738667430160	0.0132751465	
1738667430161	0.013809204	
1738667430162	0.008239746	
1738667430163	6.1035156E-4	
1738667430164	0.01121521	
1738667430165	0.011367798	
1738667430166	0.018463135	
1738667430167	0.023651123	
1738667430168	0.008850098	
1738667430169	-0.002670288	
1738667430170	0.0032043457	
1738667430171	0.017547607	
1738667430172	0.009307861	
1738667430173	0.0038146973	
1738667430174	0.015640259	
1738667430175	0.0075531006	
1738667430176	-0.007095337	
1738667430177	-0.013885498	
1738667430178	-0.029373169	
1738667430179	-0.03387451	
1738667430180	-0.01586914	
1738667430181	-0.0036621094	
1738667430182	0.0023651123	
1738667430183	-0.0032806396	
1738667430184	-0.010604858	
1738667430185	-0.0045776367	
1738667430186	-3.0517578E-4	
1738667430187	0.007095337	
1738667430188	0.0034332275	
1738667430189	-0.01159668	
1738667430190	-0.009307861	
1738667430191	-0.009841919	
1738667430192	-0.012130737	
1738667430193	-0.008392334	
1738667430194	-0.008850098	
1738667430195	-0.0020599365	
1738667430196	0.006866455	
1738667430197	6.1035156E-4	
1738667430198	0.0	
1738667430199	0.0048828125	
1738667430200	6.1035156E-4	
1738667430201	9.1552734E-4	
1738667430202	-0.0063323975	
1738667430203	-0.016708374	
1738667430204	-0.0060272217	
1738667430205	0.012130737	
1738667430206	0.018692017	
1738667430207	0.019836426	
1738667430208	0.01991272	
1738667430209	0.0011444092	
1738667430210	-0.008468628	
1738667430211	-0.008010864	
1738667430212	-0.005493164	
1738667430213	0.005340576	
1738667430214	0.021820068	
1738667430215	0.03540039	
1738667430216	0.021820068	
1738667430217	0.0062561035	
1738667430218	9.1552734E-4	
1738667430219	-0.01121521	
1738667430220	-0.019760132	
1738667430221	-0.016555786	
1738667430222	-0.012359619	
1738667430223	-0.002670288	
1738667430224	0.0051879883	
1738667430225	2.2888184E-4	
1738667430226	0.009307861	
1738667430227	0.015335083	
1738667430228	0.0051116943	
1738667430229	0.004043579	
1738667430230	0.003967285	
1738667430231	0.012741089	
1738667430232	0.015258789	
1738667430233	-0.001449585	
1738667430234	-0.0050354004	
1738667430235	-0.01083374	
1738667430236	-0.01586914	
1738667430237	-0.007095337	
1738667430238	-0.0012969971	
1738667430239	-1.5258789E-4	
1738667430240	0.011444092	
1738667430241	0.015182495	
1738667430242	0.0031280518	
1738667430243	0.003967285	
1738667430244	-4.5776367E-4	
1738667430245	-0.00869751	
1738667430246	-0.004043579	
1738667430247	7.6293945E-5	
1738667430248	0.0045776367	
1738667430249	-0.005493164	
1738667430250	-0.013885498	
1738667430251	-0.0076293945	
1738667430252	-0.0074768066	
1738667430253	0.0019836426	
1738667430254	0.008163452	
1738667430255	0.0	
1738667430256	-0.004501343	
1738667430257	-0.002670288	
1738667430258	0.0048828125	
1738667430259	0.008926392	
1738667430260	0.0030517578	
1738667430261	-0.0032043457	
1738667430262	-0.0035858154	
1738667430263	-0.004272461	
1738667430264	-0.0022888184	
1738667430265	-0.0011444092	
1738667430266	-0.0064849854	
1738667430267	-0.008773804	
1738667430268	-0.0023651123	
1738667430269	-0.0031280518	
1738667430270	0.0032043457	
1738667430271	0.013580322	
1738667430272	0.004043579	
1738667430273	-0.011520386	
1738667430274	-0.021820068	
1738667430275	-0.023880005	
1738667430276	-0.013046265	
1738667430277	-0.0065612793	
1738667430278	-0.009918213	
1738667430279	-0.0076293945	
1738667430280	-0.0020599365	
1738667430281	0.0025177002	
1738667430282	7.6293945E-4	
1738667430283	-3.0517578E-4	
1738667430284	-3.8146973E-4	
1738667430285	0.008087158	
1738667430286	0.021438599	
1738667430287	0.016403198	
1738667430288	0.010757446	
1738667430289	0.008392334	
1738667430290	0.010375977	
1738667430291	0.007858276	
1738667430292	0.004196167	
1738667430293	0.012283325	
1738667430294	0.008239746	
1738667430295	0.013656616	
1738667430296	0.028839111	
1738667430297	0.01625061	
1738667430298	0.0061798096	
1738667430299	-0.01663208	
1738667430300	-0.011062622	
1738667430301	-8.392334E-4	
1738667430302	-0.010299683	
1738667430303	0.0023651123	
1738667430304	-0.007171631	
1738667430305	-0.004196167	
1738667430306	-0.005722046	
1738667430307	-0.009307861	
1738667430308	-8.392334E-4	
1738667430309	-0.0073242188	
1738667430310	0.0051116943	
1738667430311	-0.016479492	
1738667430312	-0.025177002	
1738667430313	-0.015106201	
1738667430314	-0.021743774	
1738667430315	-0.017089844	
1738667430316	-0.021362305	
1738667430317	-0.018920898	
1738667430318	-0.01625061	
1738667430319	-0.014572144	
1738667430320	-0.010147095	
1738667430321	-0.0012969971	
1738667430322	0.0022888184	
1738667430323	0.0049591064	
1738667430324	0.014190674	
1738667430325	0.017318726	
1738667430326	0.017852783	
1738667430327	0.018844604	
1738667430328	0.029220581	
1738667430329	0.03501892	
1738667430330	0.032577515	
1738667430331	0.033340454	
1738667430332	0.027923584	
1738667430333	0.023651123	
1738667430334	0.029525757	
1738667430335	0.019378662	
1738667430336	0.0077056885	
1738667430337	0.008773804	
1738667430338	0.0025177002	
1738667430339	-7.6293945E-4	
1738667430340	0.0020599365	
1738667430341	4.5776367E-4	
1738667430342	0.0049591064	
1738667430343	0.0048828125	
1738667430344	-0.009384155	
1738667430345	-0.010681152	
1738667430346	-0.0146484375	
1738667430347	-0.009613037	
1738667430348	0.0038909912	
1738667430349	-0.0024414062	
1738667430350	-0.012435913	
1738667430351	-0.020751953	
1738667430352	-0.020446777	
1738667430353	-0.0074005127	
1738667430354	-0.007095337	
1738667430355	-0.010681152	
1738667430356	-0.008010864	
1738667430357	-0.012893677	
1738667430358	-0.01739502	
1738667430359	-0.015258789	
1738667430360	-0.015106201	
1738667430361	-0.008621216	
1738667430362	-0.0031280518	
1738667430363	-0.005722046	
1738667430364	-0.0132751465	
1738667430365	-0.016326904	
1738667430366	-0.0062561035	
1738667430367	-0.007019043	
1738667430368	-0.014724731	
1738667430369	-0.009994507	
1738667430370	-0.0038909912	
1738667430371	0.00579834	
1738667430372	0.012664795	
1738667430373	-3.0517578E-4	
1738667430374	-0.0062561035	
1738667430375	-0.0022888184	
1738667430376	-0.0074005127	
1738667430377	-0.005645752	
1738667430378	-0.0031280518	
1738667430379	-0.004348755	
1738667430380	0.0048065186	
1738667430381	0.014343262	
1738667430382	0.019683838	
1738667430383	0.02029419	
1738667430384	0.015563965	
1738667430385	0.015563965	
1738667430386	0.010681152	
1738667430387	0.006866455	
1738667430388	0.013427734	
1738667430389	0.012054443	
1738667430390	0.0118255615	
1738667430391	0.0038146973	
1738667430392	-0.0025939941	
1738667430393	-0.008773804	
1738667430394	-0.0038909912	
1738667430395	0.0033569336	
1738667430396	-0.011291504	
1738667430397	-0.0051116943	
1738667430398	-7.6293945E-5	
1738667430399	0.0035095215	
1738667430400	0.009765625	
1738667430401	0.00541687	
1738667430402	0.005264282	
1738667430403	0.0064849854	
1738667430404	0.012969971	
1738667430405	0.016555786	
1738667430406	0.014877319	
1738667430407	0.0030517578	
1738667430408	-0.0146484375	
1738667430409	-0.019989014	
1738667430410	-0.019683838	
1738667430411	-0.022888184	
1738667430412	-0.017700195	
1738667430413	0.0059509277	
1738667430414	0.023498535	
1738667430415	0.021057129	
1738667430416	0.020065308	
1738667430417	0.010986328	
1738667430418	-0.0017547607	
1738667430419	-1.5258789E-4	
1738667430420	-0.004425049	
1738667430421	-0.002670288	
1738667430422	0.0045776367	
1738667430423	-0.005493164	
1738667430424	0.010604858	
1738667430425	0.018844604	
1738667430426	-0.0022125244	
1738667430427	0.0062561035	
1738667430428	0.005645752	
1738667430429	-0.009460449	
1738667430430	-0.0118255615	
1738667430431	-0.012207031	
1738667430432	-0.013580322	
1738667430433	-0.009994507	
1738667430434	0.012817383	
1738667430435	0.013198853	
1738667430436	-0.0077819824	
1738667430437	-0.01777649	
1738667430438	-0.042648315	
1738667430439	-0.046539307	
1738667430440	-0.022354126	
1738667430441	-0.016174316	
1738667430442	-0.0016021729	
1738667430443	0.009689331	
1738667430444	0.01121521	
1738667430445	4.5776367E-4	
1738667430446	-0.03929138	
1738667430447	-0.056228638	
1738667430448	-0.012588501	
1738667430449	0.040893555	
1738667430450	0.06492615	
1738667430451	0.088653564	
1738667430452	0.087509155	
1738667430453	0.026397705	
1738667430454	-0.037460327	
1738667430455	-0.030517578	
1738667430456	-0.005264282	
1738667430457	-0.006866455	
1738667430458	-0.010299683	
1738667430459	-0.010681152	
1738667430460	-0.0061798096	
1738667430461	-0.010910034	
1738667430462	-0.008163452	
1738667430463	0.015945435	
1738667430464	0.039367676	
1738667430465	0.036392212	
1738667430466	0.00579834	
1738667430467	-0.008621216	
1738667430468	-0.012054443	
1738667430469	-0.0015258789	
1738667430470	0.01083374	
1738667430471	-0.0077819824	
1738667430472	-0.021209717	
1738667430473	-0.018005371	
1738667430474	-0.008773804	
1738667430475	-0.014801025	
1738667430476	-0.042037964	
1738667430477	-0.08079529	
1738667430478	-0.08308411	
1738667430479	0.018920898	
1738667430480	0.110321045	
1738667430481	0.1222229	
1738667430482	0.10108948	
1738667430483	0.015640259	
1738667430484	-0.039367676	
1738667430485	-0.019989014	
1738667430486	-0.030059814	
1738667430487	-0.0667572	
1738667430488	-0.08224487	
1738667430489	-0.07751465	
1738667430490	-0.04890442	
1738667430491	1.5258789E-4	
1738667430492	0.02998352	
1738667430493	0.03944397	
1738667430494	0.060043335	
1738667430495	0.06072998	
1738667430496	0.042800903	
1738667430497	0.030136108	
1738667430498	0.011138916	
1738667430499	-9.1552734E-4	
1738667430500	-0.0038909912	
1738667430501	0.0018310547	
1738667430502	0.005493164	
1738667430503	-0.0025939941	
1738667430504	-0.0063323975	
1738667430505	-0.004043579	
1738667430506	-0.0049591064	
1738667430507	-0.0050354004	
1738667430508	-0.008163452	
1738667430509	-0.012741089	
1738667430510	-0.005722046	
1738667430511	0.0023651123	
1738667430512	0.010910034	
1738667430513	0.009765625	
1738667430514	-3.0517578E-4	
1738667430515	0.0074768066	
1738667430516	-0.007247925	
1738667430517	-0.043182373	
1738667430518	-0.04348755	
1738667430519	-0.023880005	
1738667430520	-0.013198853	
1738667430521	0.0020599365	
1738667430522	0.01876831	
1738667430523	0.025100708	
1738667430524	0.005264282	
1738667430525	-0.007858276	
1738667430526	-0.0016784668	
1738667430527	0.002670288	
1738667430528	0.009689331	
1738667430529	0.0076293945	
1738667430530	-0.0061798096	
1738667430531	-0.003967285	
1738667430532	-0.002822876	
1738667430533	0.0061798096	
1738667430534	0.009613037	
1738667430535	-0.0023651123	
1738667430536	-3.0517578E-4	
1738667430537	-0.0025939941	
1738667430538	0.0033569336	
1738667430539	0.008468628	
1738667430540	0.011062622	
1738667430541	0.015029907	
1738667430542	-0.0037384033	
1738667430543	-0.0030517578	
1738667430544	0.013046265	
1738667430545	0.010375977	
1738667430546	-0.01121521	
1738667430547	-0.013656616	
1738667430548	-0.0048065186	
1738667430549	-0.015106201	
1738667430550	-0.02067566	
1738667430551	-0.01991272	
1738667430552	-0.017089844	
1738667430553	-0.008468628	
1738667430554	-0.0011444092	
1738667430555	-0.006713867	
1738667430556	-0.013046265	
1738667430557	0.009384155	
1738667430558	0.03364563	
1738667430559	0.04547119	
1738667430560	0.04058838	
1738667430561	0.022201538	
1738667430562	0.010604858	
1738667430563	0.009384155	
1738667430564	0.009689331	
1738667430565	-0.0032806396	
1738667430566	-0.0132751465	
1738667430567	-0.0051879883	
1738667430568	0.0051116943	
1738667430569	0.016021729	
1738667430570	0.010147095	
1738667430571	-0.0065612793	
1738667430572	-0.0016021729	
1738667430573	-0.0119018555	
1738667430574	-0.03211975	
1738667430575	-0.020523071	
1738667430576	-0.017166138	
1738667430577	-0.01991272	
1738667430578	-0.0064849854	
1738667430579	-7.6293945E-4	
1738667430580	0.0050354004	
1738667430581	0.0025177002	
1738667430582	-0.013809204	
1738667430583	-0.012588501	
1738667430584	0.0012207031	
1738667430585	-0.0022888184	
1738667430586	-0.02243042	
1738667430587	-0.026855469	
1738667430588	-0.012435913	
1738667430589	-0.01083374	
1738667430590	-0.0061035156	
1738667430591	0.01159668	
1738667430592	0.020370483	
1738667430593	0.02670288	
1738667430594	0.028686523	
1738667430595	0.04096985	
1738667430596	0.053024292	
1738667430597	0.034561157	
1738667430598	-0.027923584	
1738667430599	-0.08262634	
1738667430600	-0.07614136	
1738667430601	-0.030136108	
1738667430602	0.009155273	
1738667430603	0.02418518	
1738667430604	0.019378662	
1738667430605	0.012207031	
1738667430606	0.019454956	
1738667430607	0.036010742	
1738667430608	0.047607422	
1738667430609	0.042114258	
1738667430610	0.035247803	
1738667430611	0.017318726	
1738667430612	0.013046265	
1738667430613	0.009155273	
1738667430614	-0.004425049	
1738667430615	-0.013046265	
1738667430616	-0.019607544	
1738667430617	-0.018081665	
1738667430618	-0.004043579	
1738667430619	0.0059509277	
1738667430620	0.005569458	
1738667430621	-0.004425049	
1738667430622	-0.0012207031	
1738667430623	-0.023345947	
1738667430624	-0.053329468	
1738667430625	-0.047607422	
1738667430626	-0.029907227	
1738667430627	-0.009384155	
1738667430628	-0.004043579	
1738667430629	-0.007858276	
1738667430630	-0.016403198	
1738667430631	-0.02822876	
1738667430632	-0.010375977	
1738667430633	0.0025177002	
1738667430634	0.019989014	
1738667430635	0.03326416	
1738667430636	0.009155273	
1738667430637	-0.0063323975	
1738667430638	3.0517578E-4	
1738667430639	0.00869751	
1738667430640	0.008392334	
1738667430641	0.0035095215	
1738667430642	0.002822876	
1738667430643	0.009765625	
1738667430644	0.034103394	
1738667430645	0.04928589	
1738667430646	0.036621094	
1738667430647	0.016860962	
1738667430648	-0.0077819824	
1738667430649	-0.013427734	
1738667430650	-0.001373291	
1738667430651	-0.011062622	
1738667430652	-0.019226074	
1738667430653	-0.020065308	
1738667430654	-0.030899048	
1738667430655	-0.035247803	
1738667430656	-0.03517151	
1738667430657	-0.039520264	
1738667430658	-0.053482056	
1738667430659	-0.060653687	
1738667430660	-0.041275024	
1738667430661	-0.039138794	
1738667430662	-0.026550293	
1738667430663	-0.00793457	
1738667430664	-0.010910034	
1738667430665	-0.006866455	
1738667430666	-0.008239746	
1738667430667	9.918213E-4	
1738667430668	-0.006790161	
1738667430669	-0.010681152	
1738667430670	0.029830933	
1738667430671	0.057144165	
1738667430672	0.06790161	
1738667430673	0.07720947	
1738667430674	0.092315674	
1738667430675	0.12397766	
1738667430676	0.13046265	
1738667430677	0.11886597	
1738667430678	0.088653564	
1738667430679	0.025177002	
1738667430680	-0.026931763	
1738667430681	-0.026168823	
1738667430682	-0.01876831	
1738667430683	-0.013122559	
1738667430684	-2.2888184E-4	
1738667430685	0.012207031	
1738667430686	0.03326416	
1738667430687	0.029220581	
1738667430688	0.02571106	
1738667430689	0.030670166	
1738667430690	0.0047302246	
1738667430691	-0.03982544	
1738667430692	-0.086517334	
1738667430693	-0.11077881	
1738667430694	-0.10002136	
1738667430695	-0.08377075	
1738667430696	-0.05180359	
1738667430697	-0.028762817	
1738667430698	-0.005493164	
1738667430699	0.018157959	
1738667430700	0.040664673	
1738667430701	0.053329468	
1738667430702	0.055923462	
1738667430703	0.032730103	
1738667430704	0.00289917	
1738667430705	-0.024871826	
1738667430706	-0.039901733	
1738667430707	-0.042648315	
1738667430708	-0.040512085	
1738667430709	-0.037002563	
1738667430710	-0.057907104	
1738667430711	-0.07972717	
1738667430712	-0.05722046	
1738667430713	-0.051574707	
1738667430714	-0.052642822	
1738667430715	-0.04737854	
1738667430716	-0.058135986	
1738667430717	-0.07102966	
1738667430718	-0.10543823	
1738667430719	-0.10643005	
1738667430720	-0.045928955	
1738667430721	-0.050354004	
1738667430722	-0.04776001	
1738667430723	0.012283325	
1738667430724	0.015029907	
1738667430725	0.012435913	
1738667430726	0.06614685	
1738667430727	0.0957489	
1738667430728	0.10437012	
1738667430729	0.11947632	
1738667430730	0.117492676	
1738667430731	0.114593506	
1738667430732	0.11253357	
1738667430733	0.09353638	
1738667430734	0.094680786	
1738667430735	0.09651184	
1738667430736	0.08010864	
1738667430737	0.053634644	
1738667430738	0.03250122	
1738667430739	0.025177002	
1738667430740	0.018310547	
1738667430741	0.021591187	
1738667430742	0.012741089	
1738667430743	-0.009689331	
1738667430744	-0.016555786	
1738667430745	-0.019989014	
1738667430746	-0.025253296	
1738667430747	-0.016784668	
1738667430748	-0.0020599365	
1738667430749	-0.0051116943	
1738667430750	-0.019302368	
1738667430751	-0.041732788	
1738667430752	-0.033111572	
1738667430753	0.011367798	
1738667430754	0.028839111	
1738667430755	0.010910034	
1738667430756	0.0051879883	
1738667430757	-0.013580322	
1738667430758	-0.032196045	
1738667430759	-0.039749146	
1738667430760	-0.04714966	
1738667430761	-0.036239624	
1738667430762	-0.024261475	
1738667430763	-0.026931763	
1738667430764	-0.044403076	
1738667430765	-0.08758545	
1738667430766	-0.1007843	
1738667430767	-0.084228516	
1738667430768	-0.047454834	
1738667430769	-0.029449463	
1738667430770	-0.027770996	
1738667430771	-0.0019836426	
1738667430772	0.013504028	
1738667430773	0.049057007	
1738667430774	0.060958862	
1738667430775	0.038986206	
1738667430776	0.020370483	
1738667430777	0.0035858154	
1738667430778	0.030517578	
1738667430779	0.042419434	
1738667430780	0.006942749	
1738667430781	0.011520386	
1738667430782	0.011367798	
1738667430783	-0.0051879883	
1738667430784	0.0074005127	
1738667430785	-0.002822876	
1738667430786	-0.006866455	
1738667430787	-0.014877319	
1738667430788	-0.03479004	
1738667430789	-0.030670166	
1738667430790	-0.03288269	
1738667430791	-0.04425049	
1738667430792	-0.037384033	
1738667430793	-0.008468628	
1738667430794	0.0032806396	
1738667430795	-0.023651123	
1738667430796	-0.022964478	
1738667430797	0.008239746	
1738667430798	0.0023651123	
1738667430799	0.00869751	
1738667430800	0.01991272	
1738667430801	-0.0022888184	
1738667430802	-0.011062622	
1738667430803	0.0076293945	
1738667430804	6.1035156E-4	
1738667430805	-0.012435913	
1738667430806	0.0146484375	
1738667430807	0.056762695	
1738667430808	0.060043335	
1738667430809	0.017242432	
1738667430810	-0.0051116943	
1738667430811	0.0016784668	
1738667430812	0.006790161	
1738667430813	0.025863647	
1738667430814	0.05645752	
1738667430815	0.063705444	
1738667430816	0.053329468	
1738667430817	0.048065186	
1738667430818	0.050430298	
1738667430819	0.05050659	
1738667430820	0.04852295	
1738667430821	0.037460327	
1738667430822	0.019760132	
1738667430823	-0.0033569336	
1738667430824	-0.016479492	
1738667430825	0.005645752	
1738667430826	0.024337769	
1738667430827	0.01159668	
1738667430828	-0.009841919	
1738667430829	-0.02067566	
1738667430830	-0.013198853	
1738667430831	0.0010681152	
1738667430832	0.0022125244	
1738667430833	-0.008163452	
1738667430834	-0.02784729	
1738667430835	-0.050430298	
1738667430836	-0.06340027	
1738667430837	-0.07209778	
1738667430838	-0.04219055	
1738667430839	-0.008239746	
1738667430840	-0.043029785	
1738667430841	-0.078201294	
1738667430842	-0.058288574	
1738667430843	-0.030517578	
1738667430844	-0.040130615	
1738667430845	-0.0756073	
1738667430846	-0.070495605	
1738667430847	-0.005264282	
1738667430848	0.02418518	
1738667430849	-0.009460449	
1738667430850	4.5776367E-4	
1738667430851	0.046539307	
1738667430852	0.03768921	
1738667430853	-0.0015258789	
1738667430854	0.0035095215	
1738667430855	0.0016784668	
1738667430856	-0.018997192	
1738667430857	-0.014572144	
1738667430858	0.0	
1738667430859	0.021514893	
1738667430860	0.04875183	
1738667430861	0.048980713	
1738667430862	0.036315918	
1738667430863	0.03753662	
1738667430864	0.045166016	
1738667430865	0.04562378	
1738667430866	0.011520386	
1738667430867	-0.01625061	
1738667430868	-0.011291504	
1738667430869	0.0063323975	
1738667430870	0.01876831	
1738667430871	0.026321411	
1738667430872	0.019760132	
1738667430873	-0.007247925	
1738667430874	-0.012969971	
1738667430875	0.0061035156	
1738667430876	0.015792847	
1738667430877	-0.001449585	
1738667430878	-0.02128601	
1738667430879	-0.007095337	
1738667430880	0.01625061	
1738667430881	0.008926392	
1738667430882	0.014266968	
1738667430883	0.021057129	
1738667430884	0.005340576	
1738667430885	0.012359619	
1738667430886	0.018539429	
1738667430887	0.010910034	
1738667430888	0.020980835	
1738667430889	0.01914978	
1738667430890	-8.392334E-4	
1738667430891	-0.02998352	
1738667430892	-0.050430298	
1738667430893	-0.05355835	
1738667430894	-0.04310608	
1738667430895	0.019302368	
1738667430896	0.036849976	
1738667430897	0.0119018555	
1738667430898	0.022125244	
1738667430899	-0.009155273	
1738667430900	-0.044555664	
1738667430901	-0.050964355	
1738667430902	-0.02067566	
1738667430903	0.021057129	
1738667430904	0.01838684	
1738667430905	0.02357483	
1738667430906	0.012893677	
1738667430907	-0.0025177002	
1738667430908	0.0022888184	
1738667430909	-0.009307861	
1738667430910	-0.047912598	
1738667430911	-0.09208679	
1738667430912	-0.070877075	
1738667430913	-0.051956177	
1738667430914	-0.07217407	
1738667430915	-0.041122437	
1738667430916	-0.009613037	
1738667430917	0.019836426	
1738667430918	0.04020691	
1738667430919	0.017852783	
1738667430920	0.02609253	
1738667430921	0.041122437	
1738667430922	0.03868103	
1738667430923	0.035858154	
1738667430924	0.041656494	
1738667430925	0.05630493	
1738667430926	0.043411255	
1738667430927	0.020904541	
1738667430928	0.029373169	
1738667430929	0.025634766	
1738667430930	0.01411438	
1738667430931	0.008850098	
1738667430932	0.015487671	
1738667430933	-0.041046143	
1738667430934	-0.111694336	
1738667430935	-0.10185242	
1738667430936	-0.06538391	
1738667430937	0.029067993	
1738667430938	0.09147644	
1738667430939	0.049972534	
1738667430940	0.02998352	
1738667430941	0.06286621	
1738667430942	0.11482239	
1738667430943	0.13267517	
1738667430944	0.09613037	
1738667430945	0.0132751465	
1738667430946	-0.110321045	
1738667430947	-0.15449524	
1738667430948	-0.12672424	
1738667430949	-0.07118225	
1738667430950	0.046691895	
1738667430951	0.13877869	
1738667430952	0.16647339	
1738667430953	0.058898926	
1738667430954	-0.10002136	
1738667430955	-0.12275696	
1738667430956	-0.09140015	
1738667430957	-0.12008667	
1738667430958	-0.18959045	
1738667430959	-0.18936157	
1738667430960	-0.16334534	
1738667430961	-0.1461792	
1738667430962	0.018844604	
1738667430963	0.14701843	
1738667430964	0.127182	
1738667430965	0.2179718	
1738667430966	0.28862	
1738667430967	0.20874023	
1738667430968	0.14907837	
1738667430969	0.096969604	
1738667430970	0.055847168	
1738667430971	0.044708252	
1738667430972	-0.026779175	
1738667430973	-0.08430481	
1738667430974	-0.07606506	
1738667430975	-0.037078857	
1738667430976	-0.012130737	
1738667430977	-0.0655365	
1738667430978	-0.07446289	
1738667430979	-0.07659912	
1738667430980	-0.12214661	
1738667430981	-0.123291016	
1738667430982	-0.1309967	
1738667430983	-0.060653687	
1738667430984	0.05508423	
1738667430985	0.048675537	
1738667430986	0.11177063	
1738667430987	0.17417908	
1738667430988	0.04486084	
1738667430989	-0.117111206	
1738667430990	-0.15861511	
1738667430991	-0.15525818	
1738667430992	-0.2619934	
1738667430993	-0.33966064	
1738667430994	-0.26428223	
1738667430995	-0.082855225	
1738667430996	0.051956177	
1738667430997	0.12336731	
1738667430998	0.21965027	
1738667430999	0.2696228	
1738667431000	0.30067444	
1738667431001	0.2986145	
1738667431002	0.23612976	
1738667431003	0.22720337	
1738667431004	0.20446777	
1738667431005	0.15235901	
1738667431006	0.08338928	
1738667431007	-0.07110596	
1738667431008	-0.13389587	
1738667431009	-0.114212036	
1738667431010	-0.1398468	
1738667431011	-0.07896423	
1738667431012	-0.03074646	
1738667431013	-0.014419556	
1738667431014	0.08483887	
1738667431015	0.07545471	
1738667431016	-0.030899048	
1738667431017	-0.052108765	
1738667431018	-0.11253357	
1738667431019	-0.2531433	
1738667431020	-0.2218628	
1738667431021	-0.08758545	
1738667431022	-0.03265381	
1738667431023	-0.09750366	
1738667431024	-0.09269714	
1738667431025	0.18714905	
1738667431026	0.35591125	
1738667431027	0.26306152	
1738667431028	0.17807007	
1738667431029	0.05630493	
1738667431030	-0.13809204	
1738667431031	-0.30464172	
1738667431032	-0.37086487	
1738667431033	-0.31021118	
1738667431034	-0.3113556	
1738667431035	-0.28251648	
1738667431036	0.015411377	
1738667431037	0.21263123	
1738667431038	0.22789001	
1738667431039	0.34591675	
1738667431040	0.48828125	
1738667431041	0.6970215	
1738667431042	0.7110596	
1738667431043	0.26008606	
1738667431044	-0.19195557	
1738667431045	-0.48301697	
1738667431046	-0.73265076	
1738667431047	-0.88127136	
1738667431048	-0.831604	
1738667431049	-0.5976105	
1738667431050	-0.24406433	
1738667431051	0.19378662	
1738667431052	0.5445862	
1738667431053	0.5205536	
1738667431054	0.39970398	
1738667431055	0.3148651	
1738667431056	0.14793396	
1738667431057	0.12992859	
1738667431058	0.12275696	
1738667431059	0.05760193	
1738667431060	0.05050659	
1738667431061	0.10826111	
1738667431062	0.18707275	
1738667431063	0.14549255	
1738667431064	0.15419006	
1738667431065	0.2833557	
1738667431066	0.2593994	
1738667431067	0.059661865	
1738667431068	-0.09437561	
1738667431069	-0.20095825	
1738667431070	-0.2506256	
1738667431071	-0.26138306	
1738667431072	-0.37345886	
1738667431073	-0.39924622	
1738667431074	-0.29060364	
1738667431075	-0.17784119	
1738667431076	-0.07698059	
1738667431077	-0.013885498	
1738667431078	0.042419434	
1738667431079	0.15983582	
1738667431080	0.34797668	
1738667431081	0.44456482	
1738667431082	0.36262512	
1738667431083	0.11550903	
1738667431084	-0.2193451	
1738667431085	-0.3817749	
1738667431086	-0.58525085	
1738667431087	-0.7822418	
1738667431088	-0.49346924	
1738667431089	-0.19508362	
1738667431090	-0.020217896	
1738667431091	0.29129028	
1738667431092	0.36331177	
1738667431093	0.25382996	
1738667431094	0.2658844	
1738667431095	0.2584839	
1738667431096	0.2785492	
1738667431097	0.3542328	
1738667431098	0.21560669	
1738667431099	0.06828308	
1738667431100	0.07156372	
1738667431101	0.054473877	
1738667431102	-0.021438599	
1738667431103	-0.0541687	
1738667431104	0.12054443	
1738667431105	0.342865	
1738667431106	0.5156708	
1738667431107	0.40847778	
1738667431108	-0.14297485	
1738667431109	-0.57655334	
1738667431110	-0.7245636	
1738667431111	-0.81352234	
1738667431112	-0.6175995	
1738667431113	-0.30189514	
1738667431114	-0.0920105	
1738667431115	0.20065308	
1738667431116	0.2481842	
1738667431117	0.2986145	
1738667431118	0.43006897	
1738667431119	0.31455994	
1738667431120	0.23956299	
1738667431121	0.07217407	
1738667431122	-0.09239197	
1738667431123	-0.037994385	
1738667431124	-0.14884949	
1738667431125	-0.38887024	
1738667431126	-0.30082703	
1738667431127	-0.060424805	
1738667431128	0.002746582	
1738667431129	0.008087158	
1738667431130	0.051193237	
1738667431131	0.03692627	
1738667431132	0.0076293945	
1738667431133	0.1436615	
1738667431134	0.16357422	
1738667431135	-0.043411255	
1738667431136	-0.07369995	
1738667431137	-0.008926392	
1738667431138	0.024490356	
1738667431139	0.111846924	
1738667431140	0.1839447	
1738667431141	0.23864746	
1738667431142	0.17471313	
1738667431143	0.007019043	
1738667431144	0.04425049	
1738667431145	0.21514893	
1738667431146	0.15319824	
1738667431147	-0.041046143	
1738667431148	-0.15541077	
1738667431149	-0.24772644	
1738667431150	-0.18562317	
1738667431151	-0.03479004	
1738667431152	-0.014038086	
1738667431153	-0.03326416	
1738667431154	-0.095214844	
1738667431155	-0.05126953	
1738667431156	0.12107849	
1738667431157	0.10635376	
1738667431158	0.06278992	
1738667431159	-0.01876831	
1738667431160	-0.1776886	
1738667431161	-0.1991272	
1738667431162	-0.26390076	
1738667431163	-0.31906128	
1738667431164	-0.30082703	
1738667431165	-0.24169922	
1738667431166	-0.0064849854	
1738667431167	0.114974976	
1738667431168	0.048828125	
1738667431169	0.11482239	
1738667431170	0.306015	
1738667431171	0.42053223	
1738667431172	0.41656494	
1738667431173	0.30265808	
1738667431174	0.15350342	
1738667431175	0.08087158	
1738667431176	0.013198853	
1738667431177	-0.046463013	
1738667431178	-0.032730103	
1738667431179	-0.13313293	
1738667431180	-0.21476746	
1738667431181	-0.14022827	
1738667431182	-0.078048706	
1738667431183	-0.04447937	
1738667431184	-0.083847046	
1738667431185	-0.10658264	
1738667431186	-0.047531128	
1738667431187	-0.004348755	
1738667431188	0.038375854	
1738667431189	0.029067993	
1738667431190	0.034866333	
1738667431191	0.037765503	
1738667431192	-0.012435913	
1738667431193	-0.01335144	
1738667431194	-0.010299683	
1738667431195	-0.020141602	
1738667431196	-0.02494812	
1738667431197	-0.039901733	
1738667431198	-0.013427734	
1738667431199	0.02281189	
1738667431200	0.044326782	
1738667431201	0.029449463	
1738667431202	-0.019378662	
1738667431203	-0.015945435	
1738667431204	-0.02746582	
1738667431205	-0.017700195	
1738667431206	0.020370483	
1738667431207	-0.015335083	
1738667431208	-0.012741089	
1738667431209	-0.009307861	
1738667431210	-0.024261475	
1738667431211	0.05973816	
1738667431212	0.07209778	
1738667431213	0.0016784668	
1738667431214	0.012893677	
1738667431215	0.03501892	
1738667431216	0.025253296	
1738667431217	0.054779053	
1738667431218	0.06637573	
1738667431219	0.03135681	
1738667431220	0.014953613	
1738667431221	0.007171631	
1738667431222	-0.028839111	
1738667431223	-0.06828308	
1738667431224	-0.07034302	
1738667431225	-0.021896362	
1738667431226	0.017852783	
1738667431227	0.00541687	
1738667431228	0.0030517578	
1738667431229	-0.015106201	
1738667431230	-0.025177002	
1738667431231	0.005722046	
1738667431232	0.012969971	
1738667431233	0.009307861	
1738667431234	0.0035858154	
1738667431235	-0.0065612793	
1738667431236	-0.004043579	
1738667431237	-0.004348755	
1738667431238	-0.0062561035	
1738667431239	-0.0074005127	
1738667431240	2.2888184E-4	
1738667431241	-0.009307861	
1738667431242	-0.006942749	
1738667431243	0.0029754639	
1738667431244	-0.002670288	
1738667431245	-0.014038086	
1738667431246	-0.00869751	
1738667431247	0.001373291	
1738667431248	-0.01586914	
1738667431249	-0.013046265	
1738667431250	-0.010910034	
1738667431251	-6.866455E-4	
1738667431252	0.0074005127	
1738667431253	-0.006942749	
1738667431254	-0.034332275	
1738667431255	-0.02784729	
1738667431256	3.0517578E-4	
1738667431257	-0.010986328	
1738667431258	-0.014038086	
1738667431259	0.0035858154	
1738667431260	-0.0061798096	
1738667431261	-0.005264282	
1738667431262	-0.0104522705	
1738667431263	0.004196167	
1738667431264	0.029678345	
1738667431265	0.015335083	
1738667431266	0.014724731	
1738667431267	0.018844604	
1738667431268	0.01914978	
1738667431269	0.035095215	
1738667431270	0.025024414	
1738667431271	0.020141602	
1738667431272	0.016479492	
1738667431273	0.008926392	
1738667431274	0.008621216	
1738667431275	-0.0016021729	
1738667431276	0.009841919	
1738667431277	0.007095337	
1738667431278	0.0022888184	
1738667431279	0.0012969971	
1738667431280	-0.0051879883	
1738667431281	0.0064849854	
1738667431282	0.009613037	
1738667431283	0.008392334	
1738667431284	0.014953613	
1738667431285	-0.0025177002	
1738667431286	-0.0064086914	
1738667431287	-6.1035156E-4	
1738667431288	-0.0119018555	
1738667431289	-0.015258789	
1738667431290	-0.018081665	
1738667431291	-0.008926392	
1738667431292	0.0	
1738667431293	3.0517578E-4	
1738667431294	0.007171631	
1738667431295	0.014266968	
1738667431296	0.006790161	
1738667431297	-0.001373291	
1738667431298	-0.001373291	
1738667431299	0.0022888184	
1738667431300	-0.0017547607	
1738667431301	-0.008010864	
1738667431302	-0.01335144	
1738667431303	-0.0050354004	
1738667431304	0.0065612793	
1738667431305	0.009841919	
1738667431306	0.0064849854	
1738667431307	-0.005493164	
1738667431308	-0.01159668	
1738667431309	-0.018539429	
1738667431310	-0.02029419	
1738667431311	-0.027160645	
1738667431312	-0.039978027	
1738667431313	-0.04234314	
1738667431314	-0.037460327	
1738667431315	-0.039215088	
1738667431316	-0.05455017	
1738667431317	-0.0769043	
1738667431318	-0.088272095	
1738667431319	-0.081710815	
1738667431320	-0.06271362	
1738667431321	-0.037384033	
1738667431322	-0.009155273	
1738667431323	0.0036621094	
1738667431324	-0.0022888184	
1738667431325	0.0022888184	
1738667431326	0.03730774	
1738667431327	0.0730896	
1738667431328	0.086135864	
1738667431329	0.09590149	
1738667431330	0.10986328	
1738667431331	0.12809753	
1738667431332	0.1285553	
1738667431333	0.114364624	
1738667431334	0.09597778	
1738667431335	0.072784424	
1738667431336	0.066604614	
1738667431337	0.053100586	
1738667431338	0.04020691	
1738667431339	0.039138794	
1738667431340	0.02166748	
1738667431341	0.0075531006	
1738667431342	-0.009841919	
1738667431343	-0.035247803	
1738667431344	-0.044631958	
1738667431345	-0.060424805	
1738667431346	-0.078201294	
1738667431347	-0.076675415	
1738667431348	-0.08529663	
1738667431349	-0.08842468	
1738667431350	-0.07064819	
1738667431351	-0.07286072	
1738667431352	-0.095214844	
1738667431353	-0.10734558	
1738667431354	-0.11306763	
1738667431355	-0.117492676	
1738667431356	-0.10978699	
1738667431357	-0.095443726	
1738667431358	-0.07286072	
1738667431359	-0.05027771	
1738667431360	-0.034179688	
1738667431361	-0.014266968	
1738667431362	0.009841919	
1738667431363	0.028381348	
1738667431364	0.049591064	
1738667431365	0.066604614	
1738667431366	0.08522034	
1738667431367	0.107421875	
1738667431368	0.11528015	
1738667431369	0.13969421	
1738667431370	0.14480591	
1738667431371	0.13946533	
1738667431372	0.14167786	
1738667431373	0.13435364	
1738667431374	0.12237549	
1738667431375	0.120010376	
1738667431376	0.081329346	
1738667431377	0.051879883	
1738667431378	0.012283325	
1738667431379	-0.009231567	
1738667431380	-0.008850098	
1738667431381	-0.046539307	
1738667431382	-0.060577393	
1738667431383	-0.06713867	
1738667431384	-0.08407593	
1738667431385	-0.09559631	
1738667431386	-0.08979797	
1738667431387	-0.103149414	
1738667431388	-0.09490967	
1738667431389	-0.09880066	
1738667431390	-0.09124756	
1738667431391	-0.06782532	
1738667431392	-0.06866455	
1738667431393	-0.044326782	
1738667431394	-0.03829956	
1738667431395	-0.026321411	
1738667431396	-0.010147095	
1738667431397	-0.015792847	
1738667431398	-0.009689331	
1738667431399	0.015640259	
1738667431400	0.03715515	
1738667431401	0.048294067	
1738667431402	0.017471313	
1738667431403	0.0315094	
1738667431404	0.042114258	
1738667431405	0.030136108	
1738667431406	0.03288269	
1738667431407	0.022201538	
1738667431408	0.022201538	
1738667431409	0.0062561035	
1738667431410	0.0062561035	
1738667431411	0.01701355	
1738667431412	0.008392334	
1738667431413	0.019760132	
1738667431414	0.026855469	
1738667431415	0.022735596	
1738667431416	0.011291504	
1738667431417	0.009231567	
1738667431418	0.0051116943	
1738667431419	0.001449585	
1738667431420	-0.007171631	
1738667431421	-0.01838684	
1738667431422	-0.022735596	
1738667431423	-0.029907227	
1738667431424	-0.021514893	
1738667431425	-0.008926392	
1738667431426	-0.005569458	
1738667431427	-0.015335083	
1738667431428	-0.015563965	
1738667431429	-0.016479492	
1738667431430	-0.03425598	
1738667431431	-0.037384033	
1738667431432	-0.029449463	
1738667431433	-0.015106201	
1738667431434	-0.0146484375	
1738667431435	-0.052261353	
1738667431436	-0.05569458	
1738667431437	0.0076293945	
1738667431438	0.06965637	
1738667431439	0.123291016	
1738667431440	0.1461792	
1738667431441	0.06881714	
1738667431442	-0.002822876	
1738667431443	0.014572144	
1738667431444	0.015792847	
1738667431445	-0.005264282	
1738667431446	-0.012283325	
1738667431447	-0.022888184	
1738667431448	-0.018234253	
1738667431449	-0.015640259	
1738667431450	-0.032424927	
1738667431451	-0.033340454	
1738667431452	-0.023803711	
1738667431453	-0.025405884	
1738667431454	-0.02166748	
1738667431455	-0.012588501	
1738667431456	0.015487671	
1738667431457	0.047454834	
1738667431458	0.02998352	
1738667431459	7.6293945E-4	
1738667431460	-0.04386902	
1738667431461	-0.07362366	
1738667431462	-0.019073486	
1738667431463	-7.6293945E-4	
1738667431464	-0.012207031	
1738667431465	0.023880005	
1738667431466	0.03517151	
1738667431467	0.0365448	
1738667431468	0.04699707	
1738667431469	0.046844482	
1738667431470	0.030059814	
1738667431471	0.015335083	
1738667431472	0.032730103	
1738667431473	0.045318604	
1738667431474	0.03326416	
1738667431475	0.021057129	
1738667431476	-0.0024414062	
1738667431477	-0.015335083	
1738667431478	-0.023345947	
1738667431479	-0.021209717	
1738667431480	0.01121521	
1738667431481	0.010070801	
1738667431482	0.01449585	
1738667431483	0.026168823	
1738667431484	-0.03250122	
1738667431485	-0.09239197	
1738667431486	-0.119628906	
1738667431487	-0.10757446	
1738667431488	-0.063705444	
1738667431489	-0.060806274	
1738667431490	-0.05317688	
1738667431491	-0.007019043	
1738667431492	0.023422241	
1738667431493	0.022888184	
1738667431494	0.013427734	
1738667431495	0.014572144	
1738667431496	0.021514893	
1738667431497	0.0048828125	
1738667431498	-0.002822876	
1738667431499	0.030517578	
1738667431500	0.048675537	
1738667431501	0.04234314	
1738667431502	-0.0022888184	
1738667431503	-0.050964355	
1738667431504	-0.023651123	
1738667431505	0.012359619	
1738667431506	0.03463745	
1738667431507	0.03883362	
1738667431508	0.03807068	
1738667431509	0.05508423	
1738667431510	0.0340271	
1738667431511	0.01373291	
1738667431512	0.014801025	
1738667431513	0.0146484375	
1738667431514	0.012054443	
1738667431515	0.008544922	
1738667431516	9.1552734E-4	
1738667431517	-0.0024414062	
1738667431518	0.004501343	
1738667431519	-0.0032806396	
1738667431520	-0.002746582	
1738667431521	-0.008850098	
1738667431522	-0.01449585	
1738667431523	0.00289917	
1738667431524	0.0077056885	
1738667431525	0.01777649	
1738667431526	0.0022888184	
1738667431527	-0.036239624	
1738667431528	-0.0415802	
1738667431529	-0.032958984	
1738667431530	-0.033950806	
1738667431531	-0.03479004	
1738667431532	-0.031433105	
1738667431533	-0.028076172	
1738667431534	-0.025939941	
1738667431535	-0.019073486	
1738667431536	-0.017242432	
1738667431537	-0.016174316	
1738667431538	-0.012664795	
1738667431539	-0.007019043	
1738667431540	0.0032806396	
1738667431541	1.5258789E-4	
1738667431542	0.0031280518	
1738667431543	0.0	
1738667431544	-0.0033569336	
1738667431545	0.013961792	
1738667431546	0.02204895	
1738667431547	0.025558472	
1738667431548	0.033798218	
1738667431549	0.035629272	
1738667431550	0.020828247	
1738667431551	0.0074005127	
1738667431552	0.013885498	
1738667431553	0.01838684	
1738667431554	0.008544922	
1738667431555	-0.0050354004	
1738667431556	-0.009994507	
1738667431557	-0.002746582	
1738667431558	-0.0025177002	
1738667431559	-0.005264282	
1738667431560	-0.0025177002	
1738667431561	-0.008850098	
1738667431562	-0.007247925	
1738667431563	-7.6293945E-5	
1738667431564	-0.0020599365	
1738667431565	-0.00541687	
1738667431566	-0.013504028	
1738667431567	-0.009994507	
1738667431568	7.6293945E-5	
1738667431569	6.866455E-4	
1738667431570	0.0012969971	
1738667431571	5.340576E-4	
1738667431572	-0.0104522705	
1738667431573	-0.014572144	
1738667431574	0.0019836426	
1738667431575	0.014266968	
1738667431576	0.0033569336	
1738667431577	0.0029754639	
1738667431578	0.010681152	
1738667431579	0.004348755	
1738667431580	-0.0016021729	
1738667431581	-0.003967285	
1738667431582	-0.010910034	
1738667431583	-0.0031280518	
1738667431584	0.0075531006	
1738667431585	0.012283325	
1738667431586	0.010375977	
1738667431587	-0.0059509277	
1738667431588	0.005645752	
1738667431589	0.011367798	
1738667431590	0.0019073486	
1738667431591	-0.0017547607	
1738667431592	-0.010223389	
1738667431593	0.007019043	
1738667431594	0.012207031	
1738667431595	0.033569336	
1738667431596	0.031967163	
1738667431597	0.04020691	
1738667431598	0.037994385	
1738667431599	0.00541687	
1738667431600	-0.0066375732	
1738667431601	-0.01953125	
1738667431602	-0.02960205	
1738667431603	-0.009155273	
1738667431604	0.0075531006	
1738667431605	-0.009155273	
1738667431606	-0.009155273	
1738667431607	-0.041427612	
1738667431608	-0.04295349	
1738667431609	-0.0047302246	
1738667431610	0.001373291	
1738667431611	0.038909912	
1738667431612	0.044937134	
1738667431613	0.050201416	
1738667431614	0.05973816	
1738667431615	0.07331848	
1738667431616	0.10269165	
1738667431617	0.11177063	
1738667431618	0.07484436	
1738667431619	-0.032424927	
1738667431620	-0.16777039	
1738667431621	-0.3011322	
1738667431622	-0.39352417	
1738667431623	-0.393219	
1738667431624	-0.30288696	
1738667431625	-0.20675659	
1738667431626	-0.053710938	
1738667431627	0.11657715	
1738667431628	0.21308899	
1738667431629	0.3126526	
1738667431630	0.36949158	
1738667431631	0.35476685	
1738667431632	0.30059814	
1738667431633	0.17547607	
1738667431634	0.0819397	
1738667431635	0.047836304	
1738667431636	-0.018081665	
1738667431637	-0.06828308	
1738667431638	-0.08766174	
1738667431639	-0.1322174	
1738667431640	-0.16242981	
1738667431641	-0.16410828	
1738667431642	-0.13069153	
1738667431643	-0.09765625	
1738667431644	-0.12458801	
1738667431645	-0.11299133	
1738667431646	-0.040283203	
1738667431647	0.012054443	
1738667431648	0.04562378	
1738667431649	0.055847168	
1738667431650	0.048675537	
1738667431651	0.03387451	
1738667431652	0.01739502	
1738667431653	0.0023651123	
1738667431654	-0.015716553	
1738667431655	-0.039978027	
1738667431656	-0.08743286	
1738667431657	-0.11062622	
1738667431658	-0.09529114	
1738667431659	-0.05607605	
1738667431660	0.03265381	
1738667431661	0.080947876	
1738667431662	0.083465576	
1738667431663	0.10482788	
1738667431664	0.091171265	
1738667431665	0.09361267	
1738667431666	0.1109314	
1738667431667	0.11665344	
1738667431668	0.12107849	
1738667431669	0.10772705	
1738667431670	0.097732544	
1738667431671	0.06668091	
1738667431672	0.04852295	
1738667431673	0.028152466	
1738667431674	0.04081726	
1738667431675	0.05088806	
1738667431676	0.014724731	
1738667431677	0.008087158	
1738667431678	-0.0066375732	
1738667431679	-0.031661987	
1738667431680	-0.0038146973	
1738667431681	0.022583008	
1738667431682	0.04295349	
1738667431683	0.046844482	
1738667431684	0.04272461	
1738667431685	0.0	
1738667431686	-0.06904602	
1738667431687	-0.14175415	
1738667431688	-0.19737244	
1738667431689	-0.21026611	
1738667431690	-0.21102905	
1738667431691	-0.20721436	
1738667431692	-0.20309448	
1738667431693	-0.19462585	
1738667431694	-0.1851654	
1738667431695	-0.17814636	
1738667431696	-0.14457703	
1738667431697	-0.08743286	
1738667431698	-0.04524231	
1738667431699	-0.01411438	
1738667431700	0.028686523	
1738667431701	0.058059692	
1738667431702	0.091552734	
1738667431703	0.10055542	
1738667431704	0.12756348	
1738667431705	0.15396118	
1738667431706	0.14907837	
1738667431707	0.16899109	
1738667431708	0.1612854	
1738667431709	0.14503479	
1738667431710	0.13206482	
1738667431711	0.115356445	
1738667431712	0.104141235	
1738667431713	0.098724365	
1738667431714	0.13008118	
1738667431715	0.097732544	
1738667431716	0.026016235	
1738667431717	-0.004348755	
1738667431718	-0.012054443	
1738667431719	-0.014724731	
1738667431720	-0.020751953	
1738667431721	-0.023803711	
1738667431722	-0.00831604	
1738667431723	-0.0022888184	
1738667431724	-0.0030517578	
1738667431725	-0.014724731	
1738667431726	-0.061035156	
1738667431727	-0.09208679	
1738667431728	-0.08506775	
1738667431729	-0.050964355	
1738667431730	-0.0048828125	
1738667431731	0.016937256	
1738667431732	-0.021133423	
1738667431733	-0.076293945	
1738667431734	-0.111312866	
1738667431735	-0.12771606	
1738667431736	-0.14015198	
1738667431737	-0.14549255	
1738667431738	-0.10055542	
1738667431739	0.017623901	
1738667431740	0.07987976	
1738667431741	0.06889343	
1738667431742	0.07759094	
1738667431743	0.052642822	
1738667431744	0.005264282	
1738667431745	-0.026855469	
1738667431746	-0.001373291	
1738667431747	0.03265381	
1738667431748	9.1552734E-4	
1738667431749	-0.047912598	
1738667431750	-0.06568909	
1738667431751	-0.022964478	
1738667431752	0.019607544	
1738667431753	0.018615723	
1738667431754	0.024414062	
1738667431755	0.023345947	
1738667431756	0.025405884	
1738667431757	0.017089844	
1738667431758	-4.5776367E-4	
1738667431759	0.022201538	
1738667431760	0.032958984	
1738667431761	0.02532959	
1738667431762	0.026931763	
1738667431763	0.024642944	
1738667431764	0.037460327	
1738667431765	0.051956177	
1738667431766	0.0390625	
1738667431767	0.027389526	
1738667431768	0.042037964	
1738667431769	0.04966736	
1738667431770	0.05340576	
1738667431771	0.052871704	
1738667431772	0.024795532	
1738667431773	-0.0065612793	
1738667431774	-0.024871826	
1738667431775	-0.01991272	
1738667431776	-0.031967163	
1738667431777	-0.057525635	
1738667431778	-0.06637573	
1738667431779	-0.09094238	
1738667431780	-0.10406494	
1738667431781	-0.08026123	
1738667431782	-0.038375854	
1738667431783	-0.020217896	
1738667431784	-0.033569336	
1738667431785	-0.024642944	
1738667431786	0.006790161	
1738667431787	7.6293945E-4	
1738667431788	-0.010147095	
1738667431789	-0.0063323975	
1738667431790	-0.017471313	
1738667431791	-0.0066375732	
1738667431792	0.020751953	
1738667431793	0.03944397	
1738667431794	0.05432129	
1738667431795	0.043945312	
1738667431796	0.028762817	
1738667431797	0.032348633	
1738667431798	0.009918213	
1738667431799	-0.007095337	
1738667431800	3.0517578E-4	
1738667431801	0.012359619	
1738667431802	0.019454956	
1738667431803	0.004196167	
1738667431804	-0.0037384033	
1738667431805	0.009994507	
1738667431806	0.014343262	
1738667431807	0.010986328	
1738667431808	-3.8146973E-4	
1738667431809	-0.009307861	
1738667431810	0.0035858154	
1738667431811	-0.0019836426	
1738667431812	-0.0074768066	
1738667431813	0.013198853	
1738667431814	0.027999878	
1738667431815	0.043640137	
1738667431816	0.03265381	
1738667431817	0.017547607	
1738667431818	0.033111572	
1738667431819	0.029754639	
1738667431820	0.002670288	
1738667431821	-0.020980835	
1738667431822	-0.030899048	
1738667431823	-0.04219055	
1738667431824	-0.03768921	
1738667431825	-0.027770996	
1738667431826	-0.025634766	
1738667431827	-0.03715515	
1738667431828	-0.029678345	
1738667431829	-0.02029419	
1738667431830	-0.021743774	
1738667431831	-0.0033569336	
1738667431832	-0.0048828125	
1738667431833	-0.012664795	
1738667431834	-0.012435913	
1738667431835	-0.0146484375	
1738667431836	0.009841919	
1738667431837	0.040893555	
1738667431838	0.0415802	
1738667431839	0.03440857	
1738667431840	0.04020691	
1738667431841	0.042648315	
1738667431842	0.020980835	
1738667431843	-6.866455E-4	
1738667431844	-0.004348755	
1738667431845	0.023269653	
1738667431846	0.055923462	
1738667431847	0.050125122	
1738667431848	0.031204224	
1738667431849	0.018539429	
1738667431850	0.00869751	
1738667431851	-0.009384155	
1738667431852	-0.0060272217	
1738667431853	0.011520386	
1738667431854	-0.009231567	
1738667431855	-0.03250122	
1738667431856	-0.05027771	
1738667431857	-0.059661865	
1738667431858	-0.06637573	
1738667431859	-0.092315674	
1738667431860	-0.101242065	
1738667431861	-0.08338928	
1738667431862	-0.07545471	
1738667431863	-0.06881714	
1738667431864	-0.052337646	
1738667431865	-0.041275024	
1738667431866	-0.045166016	
1738667431867	-0.049438477	
1738667431868	-0.044326782	
1738667431869	-0.03501892	
1738667431870	-0.023727417	
1738667431871	-0.0024414062	
1738667431872	0.02708435	
1738667431873	0.022277832	
1738667431874	0.022201538	
1738667431875	0.055541992	
1738667431876	0.07888794	
1738667431877	0.08956909	
1738667431878	0.08781433	
1738667431879	0.08659363	
1738667431880	0.086517334	
1738667431881	0.090408325	
1738667431882	0.08514404	
1738667431883	0.07209778	
1738667431884	0.06881714	
1738667431885	0.032348633	
1738667431886	0.00869751	
1738667431887	0.028152466	
1738667431888	0.036468506	
1738667431889	0.020599365	
1738667431890	0.014572144	
1738667431891	0.026779175	
1738667431892	0.034103394	
1738667431893	0.033493042	
1738667431894	0.030441284	
1738667431895	0.015411377	
1738667431896	-0.022659302	
1738667431897	-0.03364563	
1738667431898	-0.025634766	
1738667431899	-0.01838684	
1738667431900	0.010528564	
1738667431901	-0.019226074	
1738667431902	-0.07537842	
1738667431903	-0.09284973	
1738667431904	-0.10772705	
1738667431905	-0.07675171	
1738667431906	-0.04043579	
1738667431907	-0.044708252	
1738667431908	-0.027313232	
1738667431909	-0.018997192	
1738667431910	-0.042266846	
1738667431911	-0.047225952	
1738667431912	-0.039215088	
1738667431913	-0.028457642	
1738667431914	-0.02571106	
1738667431915	-0.022277832	
1738667431916	8.392334E-4	
1738667431917	0.02670288	
1738667431918	0.038223267	
1738667431919	0.01991272	
1738667431920	-0.012588501	
1738667431921	-0.05569458	
1738667431922	-0.049591064	
1738667431923	0.025024414	
1738667431924	0.042266846	
1738667431925	0.059509277	
1738667431926	0.07476807	
1738667431927	0.029754639	
1738667431928	0.018920898	
1738667431929	-0.01777649	
1738667431930	-0.023345947	
1738667431931	0.055007935	
1738667431932	0.078048706	
1738667431933	0.039901733	
1738667431934	0.034561157	
1738667431935	0.04714966	
1738667431936	-0.04966736	
1738667431937	-0.10551453	
1738667431938	-0.011749268	
1738667431939	0.027694702	
1738667431940	0.038909912	
1738667431941	0.05203247	
1738667431942	0.02166748	
1738667431943	0.023040771	
1738667431944	9.918213E-4	
1738667431945	-0.018157959	
1738667431946	0.010147095	
1738667431947	-0.0046539307	
1738667431948	-0.00831604	
1738667431949	0.008621216	
1738667431950	-0.008392334	
1738667431951	2.2888184E-4	
1738667431952	6.1035156E-4	
1738667431953	-0.024261475	
1738667431954	-0.01914978	
1738667431955	-0.024795532	
1738667431956	-0.06416321	
1738667431957	-0.08239746	
1738667431958	-0.04562378	
1738667431959	-0.0060272217	
1738667431960	0.0073242188	
1738667431961	0.013656616	
1738667431962	0.0046539307	
1738667431963	0.010986328	
1738667431964	0.015792847	
1738667431965	0.017471313	
1738667431966	0.051345825	
1738667431967	0.036468506	
1738667431968	-0.006942749	
1738667431969	-0.022354126	
1738667431970	-0.015182495	
1738667431971	0.017242432	
1738667431972	0.06965637	
1738667431973	0.15594482	
1738667431974	0.13717651	
1738667431975	-0.007247925	
1738667431976	-0.13465881	
1738667431977	-0.262146	
1738667431978	-0.31356812	
1738667431979	-0.28030396	
1738667431980	-0.26672363	
1738667431981	-0.17059326	
1738667431982	-0.014419556	
1738667431983	0.10574341	
1738667431984	0.2003479	
1738667431985	0.22285461	
1738667431986	0.3012085	
1738667431987	0.3907013	
1738667431988	0.30303955	
1738667431989	0.17021179	
1738667431990	0.09284973	
1738667431991	0.023269653	
1738667431992	0.034103394	
1738667431993	0.06790161	
1738667431994	0.017242432	
1738667431995	-0.019836426	
1738667431996	-0.03250122	
1738667431997	-0.067977905	
1738667431998	-0.094070435	
1738667431999	-0.09712219	
1738667432000	-0.1586914	
1738667432001	-0.24848938	
1738667432002	-0.19500732	
1738667432003	-0.05126953	
1738667432004	0.028305054	
1738667432005	0.064086914	
1738667432006	0.08308411	
1738667432007	0.09536743	
1738667432008	0.12832642	
1738667432009	0.07148743	
1738667432010	-0.13824463	
1738667432011	-0.35682678	
1738667432012	-0.44250488	
1738667432013	-0.34301758	
1738667432014	-0.19851685	
1738667432015	-0.15258789	
1738667432016	-0.01663208	
1738667432017	0.23300171	
1738667432018	0.3314209	
1738667432019	0.26626587	
1738667432020	0.21018982	
1738667432021	0.14831543	
1738667432022	0.08529663	
1738667432023	0.11871338	
1738667432024	0.18875122	
1738667432025	0.2305603	
1738667432026	0.1651001	
1738667432027	0.03677368	
1738667432028	-0.042495728	
1738667432029	-0.032043457	
1738667432030	0.09101868	
1738667432031	0.09414673	
1738667432032	-0.0015258789	
1738667432033	-0.031814575	
1738667432034	-0.07507324	
1738667432035	-0.0692749	
1738667432036	-0.06881714	
1738667432037	-0.09925842	
1738667432038	-0.13145447	
1738667432039	-0.1877594	
1738667432040	-0.16548157	
1738667432041	-0.10696411	
1738667432042	-0.06645203	
1738667432043	-0.10108948	
1738667432044	-0.22666931	
1738667432045	-0.29182434	
1738667432046	-0.22331238	
1738667432047	-0.112075806	
1738667432048	0.01121521	
1738667432049	0.011749268	
1738667432050	-0.09590149	
1738667432051	-0.06591797	
1738667432052	0.014724731	
1738667432053	0.062561035	
1738667432054	0.17723083	
1738667432055	0.29678345	
1738667432056	0.31845093	
1738667432057	0.362854	
1738667432058	0.42877197	
1738667432059	0.33103943	
1738667432060	0.24421692	
1738667432061	0.20935059	
1738667432062	0.12451172	
1738667432063	0.07896423	
1738667432064	-0.017700195	
1738667432065	-0.028152466	
1738667432066	0.10673523	
1738667432067	0.06965637	
1738667432068	0.019836426	
1738667432069	-0.0019836426	
1738667432070	-0.27381897	
1738667432071	-0.46165466	
1738667432072	-0.33233643	
1738667432073	-0.25779724	
1738667432074	-0.34057617	
1738667432075	-0.5013275	
1738667432076	-0.5368805	
1738667432077	-0.33493042	
1738667432078	-0.17219543	
1738667432079	-0.10765076	
1738667432080	-0.09597778	
1738667432081	-0.056152344	
1738667432082	0.012512207	
1738667432083	0.16365051	
1738667432084	0.4044342	
1738667432085	0.46539307	
1738667432086	0.56259155	
1738667432087	0.8213806	
1738667432088	0.8717346	
1738667432089	0.6007385	
1738667432090	0.11993408	
1738667432091	-0.27168274	
1738667432092	-0.4322052	
1738667432093	-0.5731964	
1738667432094	-0.61828613	
1738667432095	-0.41030884	
1738667432096	-0.12702942	
1738667432097	0.08888245	
1738667432098	0.20690918	
1738667432099	0.24711609	
1738667432100	0.25550842	
1738667432101	0.17578125	
1738667432102	0.063705444	
1738667432103	-3.8146973E-4	
1738667432104	-0.041122437	
1738667432105	-0.15426636	
1738667432106	-0.2796936	
1738667432107	-0.1613617	
1738667432108	0.019302368	
1738667432109	-0.07583618	
1738667432110	-0.09918213	
1738667432111	-0.03112793	
1738667432112	-0.1386261	
1738667432113	-0.102386475	
1738667432114	-0.0022125244	
1738667432115	0.03540039	
1738667432116	0.08644104	
1738667432117	-0.027923584	
1738667432118	-0.030670166	
1738667432119	0.044021606	
1738667432120	-0.1134491	
1738667432121	-0.22415161	
1738667432122	-0.24147034	
1738667432123	-0.13153076	
1738667432124	0.05355835	
1738667432125	0.1373291	
1738667432126	0.24032593	
1738667432127	0.24398804	
1738667432128	0.20317078	
1738667432129	0.19180298	
1738667432130	0.08666992	
1738667432131	-0.001373291	
1738667432132	-0.0064086914	
1738667432133	0.010223389	
1738667432134	-0.011367798	
1738667432135	0.008468628	
1738667432136	0.11512756	
1738667432137	0.16952515	
1738667432138	0.15197754	
1738667432139	0.08079529	
1738667432140	-0.00831604	
1738667432141	0.10368347	
1738667432142	0.18180847	
1738667432143	-0.017318726	
1738667432144	-0.19989014	
1738667432145	-0.25993347	
1738667432146	-0.1675415	
1738667432147	-0.038757324	
1738667432148	-0.043029785	
1738667432149	-0.045394897	
1738667432150	-0.10948181	
1738667432151	-0.14518738	
1738667432152	-0.01625061	
1738667432153	0.046844482	
1738667432154	-0.047073364	
1738667432155	-0.2268219	
1738667432156	-0.2874756	
1738667432157	-0.14793396	
1738667432158	0.051651	
1738667432159	0.13122559	
1738667432160	0.056381226	
1738667432161	0.08041382	
1738667432162	0.11802673	
1738667432163	0.05241394	
1738667432164	0.112838745	
1738667432165	0.15708923	
1738667432166	0.10177612	
1738667432167	0.11192322	
1738667432168	0.07637024	
1738667432169	0.01083374	
1738667432170	-0.0022888184	
1738667432171	-0.034866333	
1738667432172	-0.07385254	
1738667432173	-0.024795532	
1738667432174	0.0819397	
1738667432175	0.109939575	
1738667432176	0.07331848	
1738667432177	-0.01914978	
1738667432178	-0.12916565	
1738667432179	-0.12542725	
1738667432180	-0.08956909	
1738667432181	-0.16311646	
1738667432182	-0.23071289	
1738667432183	-0.19554138	
1738667432184	-0.18661499	
1738667432185	-0.117263794	
1738667432186	0.09635925	
1738667432187	0.19958496	
1738667432188	0.17723083	
1738667432189	0.16220093	
1738667432190	0.12573242	
1738667432191	0.07888794	
1738667432192	0.043182373	
1738667432193	0.019760132	
1738667432194	-0.009613037	
1738667432195	-0.036239624	
1738667432196	-0.039596558	
1738667432197	-0.012435913	
1738667432198	0.04737854	
1738667432199	0.02822876	
1738667432200	0.013656616	
1738667432201	0.08491516	
1738667432202	0.054779053	
1738667432203	3.8146973E-4	
1738667432204	0.0146484375	
1738667432205	0.017852783	
1738667432206	0.024642944	
1738667432207	-1.5258789E-4	
1738667432208	-0.016784668	
1738667432209	-0.018920898	
1738667432210	-0.029373169	
1738667432211	-0.022735596	
1738667432212	-0.029525757	
1738667432213	-0.02960205	
1738667432214	-0.026931763	
1738667432215	-0.023117065	
1738667432216	-0.020523071	
1738667432217	-0.023880005	
1738667432218	-0.014266968	
1738667432219	-0.016479492	
1738667432220	-0.020217896	
1738667432221	-0.017242432	
1738667432222	-0.012207031	
1738667432223	-0.0119018555	
1738667432224	-0.012130737	
1738667432225	-0.012130737	
1738667432226	-0.004119873	
1738667432227	-0.0018310547	
1738667432228	-0.0024414062	
1738667432229	0.01159668	
1738667432230	0.007247925	
1738667432231	0.0051879883	
1738667432232	0.011138916	
1738667432233	0.006942749	
1738667432234	0.0034332275	
1738667432235	0.00289917	
1738667432236	0.0074768066	
1738667432237	0.0077819824	
1738667432238	0.008621216	
1738667432239	0.0023651123	
1738667432240	-2.2888184E-4	
1738667432241	0.0021362305	
1738667432242	-0.0045776367	
1738667432243	-0.0021362305	
1738667432244	-0.004348755	
1738667432245	0.0045776367	
1738667432246	-0.0024414062	
1738667432247	-0.010375977	
1738667432248	0.004043579	
1738667432249	0.0012969971	
1738667432250	0.0048065186	
1738667432251	-0.004119873	
1738667432252	-0.01449585	
1738667432253	-0.005264282	
1738667432254	2.2888184E-4	
1738667432255	-0.005264282	
1738667432256	-0.0035858154	
1738667432257	0.014343262	
1738667432258	0.020446777	
1738667432259	0.013961792	
1738667432260	0.009536743	
1738667432261	0.0016021729	
1738667432262	0.0063323975	
1738667432263	0.017471313	
1738667432264	0.019683838	
1738667432265	0.014801025	
1738667432266	0.007247925	
1738667432267	-0.0061035156	
1738667432268	0.0012969971	
1738667432269	0.005722046	
1738667432270	-0.004501343	
1738667432271	0.0036621094	
1738667432272	9.918213E-4	
1738667432273	-0.003967285	
1738667432274	0.0032043457	
1738667432275	-4.5776367E-4	
1738667432276	6.866455E-4	
1738667432277	-0.0025939941	
1738667432278	-0.0011444092	
1738667432279	6.1035156E-4	
1738667432280	-0.007171631	
1738667432281	0.01083374	
1738667432282	0.023117065	
1738667432283	-0.0062561035	
1738667432284	-0.028305054	
1738667432285	-0.028915405	
1738667432286	-0.023040771	
1738667432287	-0.020523071	
1738667432288	-0.010986328	
1738667432289	-0.0076293945	
1738667432290	-0.022888184	
1738667432291	-0.018157959	
1738667432292	-3.0517578E-4	
1738667432293	0.0061798096	
1738667432294	0.012741089	
1738667432295	0.024795532	
1738667432296	0.020446777	
1738667432297	0.00831604	
1738667432298	0.013809204	
1738667432299	0.015792847	
1738667432300	0.01777649	
1738667432301	0.025177002	
1738667432302	0.01953125	
1738667432303	8.392334E-4	
1738667432304	-0.01625061	
1738667432305	-0.016555786	
1738667432306	-0.01663208	
1738667432307	-0.023117065	
1738667432308	-0.01701355	
1738667432309	-0.019683838	
1738667432310	-0.018920898	
1738667432311	-0.016021729	
1738667432312	-0.028381348	
1738667432313	-0.023727417	
1738667432314	-0.02822876	
1738667432315	-0.03944397	
1738667432316	-0.043411255	
1738667432317	-0.04890442	
1738667432318	-0.042114258	
1738667432319	-0.01876831	
1738667432320	0.0024414062	
1738667432321	0.01625061	
1738667432322	0.021820068	
1738667432323	0.028839111	
1738667432324	0.04951477	
1738667432325	0.06439209	
1738667432326	0.06645203	
1738667432327	0.08598328	
1738667432328	0.08300781	
1738667432329	0.07835388	
1738667432330	0.088653564	
1738667432331	0.064468384	
1738667432332	0.03829956	
1738667432333	0.027999878	
1738667432334	0.026168823	
1738667432335	0.01838684	
1738667432336	-0.00289917	
1738667432337	-0.013427734	
1738667432338	-0.014343262	
1738667432339	-0.020751953	
1738667432340	-0.040359497	
1738667432341	-0.054092407	
1738667432342	-0.06187439	
1738667432343	-0.06210327	
1738667432344	-0.075149536	
1738667432345	-0.081710815	
1738667432346	-0.077056885	
1738667432347	-0.08102417	
1738667432348	-0.068359375	
1738667432349	-0.076828	
1738667432350	-0.109176636	
1738667432351	-0.10635376	
1738667432352	-0.08895874	
1738667432353	-0.06523132	
1738667432354	-0.034179688	
1738667432355	-0.0010681152	
1738667432356	0.01625061	
1738667432357	0.013809204	
1738667432358	0.019607544	
1738667432359	0.04348755	
1738667432360	0.07698059	
1738667432361	0.10383606	
1738667432362	0.11161804	
1738667432363	0.121917725	
1738667432364	0.12504578	
1738667432365	0.119400024	
1738667432366	0.11856079	
1738667432367	0.10169983	
1738667432368	0.09902954	
1738667432369	0.089645386	
1738667432370	0.06317139	
1738667432371	0.036697388	
1738667432372	0.013885498	
1738667432373	-0.009307861	
1738667432374	-0.015945435	
1738667432375	-0.016708374	
1738667432376	-0.02998352	
1738667432377	-0.06149292	
1738667432378	-0.061187744	
1738667432379	-0.08430481	
1738667432380	-0.08956909	
1738667432381	-0.066604614	
1738667432382	-0.07865906	
1738667432383	-0.052947998	
1738667432384	-0.04989624	
1738667432385	-0.051727295	
1738667432386	-0.040283203	
1738667432387	-0.030288696	
1738667432388	-0.015792847	
1738667432389	-0.0075531006	
1738667432390	0.007858276	
1738667432391	0.00793457	
1738667432392	0.025482178	
1738667432393	0.036468506	
1738667432394	0.010375977	
1738667432395	0.009231567	
1738667432396	0.012359619	
1738667432397	0.0059509277	
1738667432398	0.009155273	
1738667432399	0.006790161	
1738667432400	-0.0021362305	
1738667432401	-0.0059509277	
1738667432402	0.002746582	
1738667432403	-0.0015258789	
1738667432404	-0.0063323975	
1738667432405	-0.010757446	
1738667432406	-0.037231445	
1738667432407	-0.06782532	
1738667432408	-0.046310425	
1738667432409	0.0077056885	
1738667432410	0.05683899	
1738667432411	0.09109497	
1738667432412	0.038986206	
1738667432413	-0.061264038	
1738667432414	-0.04096985	
1738667432415	0.017929077	
1738667432416	0.027160645	
1738667432417	0.023880005	
1738667432418	-3.8146973E-4	
1738667432419	-0.030212402	
1738667432420	-0.037765503	
1738667432421	-0.03211975	
1738667432422	0.011062622	
1738667432423	0.04737854	
1738667432424	0.030593872	
1738667432425	0.004348755	
1738667432426	-0.034713745	
1738667432427	-0.048675537	
1738667432428	-0.020599365	
1738667432429	0.034561157	
1738667432430	0.07247925	
1738667432431	0.056152344	
1738667432432	0.03555298	
1738667432433	0.045928955	
1738667432434	0.06889343	
1738667432435	0.06858826	
1738667432436	0.043258667	
1738667432437	0.015029907	
1738667432438	-0.0037384033	
1738667432439	-0.027313232	
1738667432440	-0.057373047	
1738667432441	-0.053253174	
1738667432442	-0.021209717	
1738667432443	0.022354126	
1738667432444	0.045700073	
1738667432445	-0.027389526	
1738667432446	-0.12771606	
1738667432447	-0.13397217	
1738667432448	-0.094070435	
1738667432449	-0.062332153	
1738667432450	-0.008239746	
1738667432451	0.05783081	
1738667432452	0.086746216	
1738667432453	0.06965637	
1738667432454	0.03555298	
1738667432455	0.02281189	
1738667432456	0.010299683	
1738667432457	-0.0037384033	
1738667432458	-0.004425049	
1738667432459	-0.01701355	
1738667432460	-0.010681152	
1738667432461	-0.004348755	
1738667432462	-0.028915405	
1738667432463	-0.027313232	
1738667432464	-0.0289917	
1738667432465	-0.038986206	
1738667432466	-0.014572144	
1738667432467	0.0046539307	
1738667432468	0.0064086914	
1738667432469	0.0024414062	
1738667432470	-0.002822876	
1738667432471	-0.006713867	
1738667432472	0.0010681152	
1738667432473	0.006942749	
1738667432474	0.008621216	
1738667432475	0.019302368	
1738667432476	0.030441284	
1738667432477	0.012435913	
1738667432478	-0.015182495	
1738667432479	0.008239746	
1738667432480	0.058135986	
1738667432481	0.07392883	
1738667432482	0.049209595	
1738667432483	0.015945435	
1738667432484	-0.0031280518	
1738667432485	-0.011444092	
1738667432486	-0.016174316	
1738667432487	-0.032577515	
1738667432488	-0.019073486	
1738667432489	0.016174316	
1738667432490	0.020141602	
