# OpenSignals Text File Format
# {"00:80:E1:26:A1:B0":{"sensor":["EMG"],"device name":"00:80:E1:26:A1:B0","column":["timestamp","EMG"],"sync interval":2,"time":"15:25:19","comments":"","keywords":"","device connection":"BLE00:80:E1:26:A1:B0","channels":[0],"date":"2025-01-27","mode":0,"digital IO":[],"firmware version":259,"device":"musclebanplux","position":0,"sampling rate":1000,"label":["EMG"],"resolution":[16],"special":[{}],"sleeve color":["UNKNOWN"]}}
# EndOfHeader
1737987919790	0.011291504	
1737987919791	0.0035095215	
1737987919792	-0.023880005	
1737987919793	-0.012130737	
1737987919794	-0.0059509277	
1737987919795	0.0022125244	
1737987919796	0.024414062	
1737987919797	0.012512207	
1737987919798	-0.0030517578	
1737987919799	-0.0104522705	
1737987919800	-0.0146484375	
1737987919801	-0.00579834	
1737987919802	-0.0035858154	
1737987919803	-0.0038146973	
1737987919804	-0.008010864	
1737987919805	-0.013122559	
1737987919806	0.0019073486	
1737987919807	0.011444092	
1737987919808	0.012207031	
1737987919809	0.018310547	
1737987919810	0.0090789795	
1737987919811	-0.010070801	
1737987919812	-0.020828247	
1737987919813	-0.012588501	
1737987919814	-0.0011444092	
1737987919815	-0.0022888184	
1737987919816	-0.0020599365	
1737987919817	0.0	
1737987919818	-0.0048828125	
1737987919819	-0.021057129	
1737987919820	-0.021057129	
1737987919821	0.008163452	
1737987919822	0.029830933	
1737987919823	0.034332275	
1737987919824	0.029754639	
1737987919825	0.011672974	
1737987919826	-0.0047302246	
1737987919827	-3.0517578E-4	
1737987919828	0.013504028	
1737987919829	0.013961792	
1737987919830	-0.00831604	
1737987919831	-0.02861023	
1737987919832	-0.01991272	
1737987919833	-0.016937256	
1737987919834	-0.015716553	
1737987919835	0.016937256	
1737987919836	0.022964478	
1737987919837	0.016479492	
1737987919838	0.025939941	
1737987919839	-0.023422241	
1737987919840	-0.08293152	
1737987919841	-0.05256653	
1737987919842	0.01991272	
1737987919843	0.023498535	
1737987919844	-0.023117065	
1737987919845	0.007247925	
1737987919846	0.05470276	
1737987919847	0.041427612	
1737987919848	0.04081726	
1737987919849	0.022354126	
1737987919850	-0.009841919	
1737987919851	-0.012054443	
1737987919852	-0.016708374	
1737987919853	-0.020141602	
1737987919854	-0.032577515	
1737987919855	-0.024642944	
1737987919856	-0.0019073486	
1737987919857	-0.008010864	
1737987919858	-0.0061798096	
1737987919859	0.0064849854	
1737987919860	0.01335144	
1737987919861	0.009002686	
1737987919862	0.0051116943	
1737987919863	0.013427734	
1737987919864	0.021743774	
1737987919865	0.02128601	
1737987919866	-0.012741089	
1737987919867	-0.025558472	
1737987919868	-0.004272461	
1737987919869	-0.013961792	
1737987919870	-0.009841919	
1737987919871	0.008926392	
1737987919872	0.012817383	
1737987919873	0.010681152	
1737987919874	-0.010375977	
1737987919875	-0.026626587	
1737987919876	-0.016937256	
1737987919877	-0.004501343	
1737987919878	-0.0019836426	
1737987919879	0.013198853	
1737987919880	0.02067566	
1737987919881	0.007019043	
1737987919882	0.012664795	
1737987919883	0.017929077	
1737987919884	0.008087158	
1737987919885	0.025100708	
1737987919886	0.03250122	
1737987919887	-0.005340576	
1737987919888	-0.04447937	
1737987919889	-0.05340576	
1737987919890	-0.021438599	
1737987919891	0.0016021729	
1737987919892	-0.014724731	
1737987919893	-0.011749268	
1737987919894	0.01083374	
1737987919895	0.01701355	
1737987919896	0.012817383	
1737987919897	0.0063323975	
1737987919898	0.0022125244	
1737987919899	-0.003967285	
1737987919900	0.002822876	
1737987919901	0.017547607	
1737987919902	0.0063323975	
1737987919903	-7.6293945E-4	
1737987919904	3.0517578E-4	
1737987919905	3.8146973E-4	
1737987919906	0.012969971	
1737987919907	0.013046265	
1737987919908	0.004272461	
1737987919909	-0.0075531006	
1737987919910	-0.01373291	
1737987919911	-0.0048065186	
1737987919912	-0.0033569336	
1737987919913	-0.009002686	
1737987919914	-0.009841919	
1737987919915	-0.001373291	
1737987919916	-7.6293945E-5	
1737987919917	-8.392334E-4	
1737987919918	0.0023651123	
1737987919919	-0.0047302246	
1737987919920	7.6293945E-4	
1737987919921	0.0024414062	
1737987919922	0.001373291	
1737987919923	0.008163452	
1737987919924	-0.01121521	
1737987919925	-0.01739502	
1737987919926	-0.008010864	
1737987919927	-0.006866455	
1737987919928	0.0021362305	
1737987919929	0.0036621094	
1737987919930	0.0064849854	
1737987919931	0.012969971	
1737987919932	0.0049591064	
1737987919933	-4.5776367E-4	
1737987919934	0.010070801	
1737987919935	0.011520386	
1737987919936	0.0025939941	
1737987919937	0.0030517578	
1737987919938	0.0059509277	
1737987919939	0.0032806396	
1737987919940	-0.010070801	
1737987919941	-0.020446777	
1737987919942	-0.004043579	
1737987919943	0.01625061	
1737987919944	0.010681152	
1737987919945	-0.012741089	
1737987919946	-0.031433105	
1737987919947	-0.009231567	
1737987919948	0.028533936	
1737987919949	0.017242432	
1737987919950	0.00541687	
1737987919951	0.008926392	
1737987919952	-0.008010864	
1737987919953	-0.021057129	
1737987919954	-0.025787354	
1737987919955	-0.005264282	
1737987919956	0.01449585	
1737987919957	0.015029907	
1737987919958	0.018234253	
1737987919959	0.01953125	
1737987919960	0.027542114	
1737987919961	0.013809204	
1737987919962	-0.009613037	
1737987919963	-0.021972656	
1737987919964	-0.046310425	
1737987919965	-0.03868103	
1737987919966	-0.009613037	
1737987919967	-1.5258789E-4	
1737987919968	0.0064086914	
1737987919969	0.0035095215	
1737987919970	-0.0077056885	
1737987919971	-0.00289917	
1737987919972	0.01335144	
1737987919973	0.015411377	
1737987919974	0.0090789795	
1737987919975	0.005493164	
1737987919976	9.918213E-4	
1737987919977	0.0062561035	
1737987919978	0.009841919	
1737987919979	0.0061798096	
1737987919980	0.005645752	
1737987919981	0.0025939941	
1737987919982	0.0015258789	
1737987919983	0.0035095215	
1737987919984	0.0048065186	
1737987919985	-0.0018310547	
1737987919986	-0.019226074	
1737987919987	-0.022888184	
1737987919988	-0.0033569336	
1737987919989	-8.392334E-4	
1737987919990	-0.010528564	
1737987919991	0.004425049	
1737987919992	0.012207031	
1737987919993	0.0065612793	
1737987919994	0.013198853	
1737987919995	0.01876831	
1737987919996	0.014190674	
1737987919997	-0.0038146973	
1737987919998	-0.019836426	
1737987919999	-0.017242432	
1737987920000	-0.020904541	
1737987920001	-0.019760132	
1737987920002	-0.0032043457	
1737987920003	-0.0048065186	
1737987920004	0.008087158	
1737987920005	0.036239624	
1737987920006	0.031661987	
1737987920007	-0.0047302246	
1737987920008	-0.046310425	
1737987920009	-0.044784546	
1737987920010	-0.005722046	
1737987920011	0.009994507	
1737987920012	0.0047302246	
1737987920013	0.04081726	
1737987920014	0.050964355	
1737987920015	0.0019836426	
1737987920016	-0.0051879883	
1737987920017	0.0037384033	
1737987920018	0.0	
1737987920019	-7.6293945E-4	
1737987920020	-0.014724731	
1737987920021	-0.013427734	
1737987920022	-0.0030517578	
1737987920023	-0.0025939941	
1737987920024	0.0018310547	
1737987920025	-0.002746582	
1737987920026	-0.0016784668	
1737987920027	0.0074005127	
1737987920028	-7.6293945E-5	
1737987920029	-0.0018310547	
1737987920030	0.0046539307	
1737987920031	0.0025177002	
1737987920032	-0.005569458	
1737987920033	-0.018844604	
1737987920034	-0.025939941	
1737987920035	4.5776367E-4	
1737987920036	0.020446777	
1737987920037	-1.5258789E-4	
1737987920038	-0.0032043457	
1737987920039	-0.0060272217	
1737987920040	-0.018157959	
1737987920041	-0.0029754639	
1737987920042	0.010147095	
1737987920043	0.021514893	
1737987920044	0.02571106	
1737987920045	0.020980835	
1737987920046	0.017318726	
1737987920047	-0.0073242188	
1737987920048	-0.018920898	
1737987920049	-0.0036621094	
1737987920050	-0.0024414062	
1737987920051	-0.011672974	
1737987920052	-0.012435913	
1737987920053	-0.0063323975	
1737987920054	-0.004119873	
1737987920055	0.0023651123	
1737987920056	0.004348755	
1737987920057	-0.01121521	
1737987920058	-0.008544922	
1737987920059	0.006790161	
1737987920060	0.008010864	
1737987920061	0.011672974	
1737987920062	0.009002686	
1737987920063	0.0020599365	
1737987920064	-3.8146973E-4	
1737987920065	-0.0046539307	
1737987920066	6.866455E-4	
1737987920067	0.007247925	
1737987920068	0.010223389	
1737987920069	0.0030517578	
1737987920070	-0.012512207	
1737987920071	-0.013504028	
1737987920072	6.866455E-4	
1737987920073	0.012054443	
1737987920074	-0.0032806396	
1737987920075	-0.02319336	
1737987920076	-0.006713867	
1737987920077	0.0048065186	
1737987920078	-0.007247925	
1737987920079	-0.008850098	
1737987920080	0.0050354004	
1737987920081	0.013427734	
1737987920082	-7.6293945E-5	
1737987920083	-0.0062561035	
1737987920084	0.0051116943	
1737987920085	0.010375977	
1737987920086	0.0060272217	
1737987920087	0.008163452	
1737987920088	0.012664795	
1737987920089	0.010147095	
1737987920090	0.0046539307	
1737987920091	-0.004043579	
1737987920092	-0.0047302246	
1737987920093	-0.0030517578	
1737987920094	-0.0033569336	
1737987920095	0.0038909912	
1737987920096	0.011444092	
1737987920097	0.015182495	
1737987920098	-8.392334E-4	
1737987920099	-0.031661987	
1737987920100	-0.03326416	
1737987920101	-0.030136108	
1737987920102	-0.034484863	
1737987920103	-0.009765625	
1737987920104	0.012054443	
1737987920105	0.017852783	
1737987920106	0.029754639	
1737987920107	0.03555298	
1737987920108	0.003967285	
1737987920109	-0.038757324	
1737987920110	-0.034103394	
1737987920111	-0.014343262	
1737987920112	-0.009536743	
1737987920113	0.0061798096	
1737987920114	0.029449463	
1737987920115	0.042648315	
1737987920116	0.041732788	
1737987920117	0.02029419	
1737987920118	0.0037384033	
1737987920119	0.0029754639	
1737987920120	0.0010681152	
1737987920121	-0.0021362305	
1737987920122	0.0019836426	
1737987920123	0.005645752	
1737987920124	-0.010070801	
1737987920125	-0.024490356	
1737987920126	-0.02067566	
1737987920127	-0.0046539307	
1737987920128	0.0059509277	
1737987920129	-0.017623901	
1737987920130	-0.030136108	
1737987920131	0.004348755	
1737987920132	0.016479492	
1737987920133	-0.0019836426	
1737987920134	8.392334E-4	
1737987920135	0.008163452	
1737987920136	-0.0074768066	
1737987920137	-0.028915405	
1737987920138	-0.015640259	
1737987920139	0.00793457	
1737987920140	0.0025177002	
1737987920141	-0.009994507	
1737987920142	-0.013198853	
1737987920143	0.0048828125	
1737987920144	0.023117065	
1737987920145	0.026779175	
1737987920146	0.029220581	
1737987920147	0.019607544	
1737987920148	0.009307861	
1737987920149	0.005340576	
1737987920150	0.005493164	
1737987920151	6.1035156E-4	
1737987920152	-0.012207031	
1737987920153	-0.011291504	
1737987920154	-0.015487671	
1737987920155	-0.017318726	
1737987920156	0.0025177002	
1737987920157	0.0016784668	
1737987920158	-0.008850098	
1737987920159	-0.009460449	
1737987920160	-0.024490356	
1737987920161	-0.02708435	
1737987920162	0.01083374	
1737987920163	0.057754517	
1737987920164	0.057296753	
1737987920165	0.01121521	
1737987920166	-0.014190674	
1737987920167	-0.023117065	
1737987920168	-0.030899048	
1737987920169	-0.030517578	
1737987920170	-0.034713745	
1737987920171	-0.010986328	
1737987920172	0.019760132	
1737987920173	0.022888184	
1737987920174	0.018157959	
1737987920175	-9.918213E-4	
1737987920176	-0.011520386	
1737987920177	0.0064849854	
1737987920178	0.01953125	
1737987920179	0.013809204	
1737987920180	-0.011062622	
1737987920181	-0.02960205	
1737987920182	0.0059509277	
1737987920183	0.028152466	
1737987920184	-8.392334E-4	
1737987920185	-0.0051116943	
1737987920186	0.0024414062	
1737987920187	-0.005340576	
1737987920188	-0.010986328	
1737987920189	-0.013046265	
1737987920190	-0.016174316	
1737987920191	-0.010375977	
1737987920192	0.0090789795	
1737987920193	0.024261475	
1737987920194	0.028305054	
1737987920195	0.01701355	
1737987920196	0.009841919	
1737987920197	0.0146484375	
1737987920198	0.012054443	
1737987920199	-0.00579834	
1737987920200	-0.026779175	
1737987920201	-0.026550293	
1737987920202	-0.0132751465	
1737987920203	-0.0019836426	
1737987920204	-9.1552734E-4	
1737987920205	-0.0029754639	
1737987920206	0.00793457	
1737987920207	0.032958984	
1737987920208	0.035858154	
1737987920209	-0.022125244	
1737987920210	-0.08224487	
1737987920211	-0.05821228	
1737987920212	0.023040771	
1737987920213	0.028305054	
1737987920214	-0.028839111	
1737987920215	-6.866455E-4	
1737987920216	0.04425049	
1737987920217	0.027999878	
1737987920218	0.02166748	
1737987920219	0.01159668	
1737987920220	-0.0015258789	
1737987920221	-0.0015258789	
1737987920222	-0.005569458	
1737987920223	-0.005722046	
1737987920224	-0.009155273	
1737987920225	-0.0025177002	
1737987920226	0.00579834	
1737987920227	0.0047302246	
1737987920228	0.004348755	
1737987920229	-0.00541687	
1737987920230	-0.005264282	
1737987920231	0.0023651123	
1737987920232	-0.0025939941	
1737987920233	-0.01159668	
1737987920234	-0.018157959	
1737987920235	-0.012741089	
1737987920236	-6.1035156E-4	
1737987920237	0.010299683	
1737987920238	0.019454956	
1737987920239	0.014877319	
1737987920240	-0.009841919	
1737987920241	-0.028457642	
1737987920242	-0.0118255615	
1737987920243	0.0038146973	
1737987920244	0.005645752	
1737987920245	0.015258789	
1737987920246	0.012893677	
1737987920247	0.006790161	
1737987920248	0.0077056885	
1737987920249	0.0048828125	
1737987920250	6.866455E-4	
1737987920251	-5.340576E-4	
1737987920252	-0.0063323975	
1737987920253	-0.013504028	
1737987920254	-0.0048065186	
1737987920255	-0.0015258789	
1737987920256	6.866455E-4	
1737987920257	0.010147095	
1737987920258	6.1035156E-4	
1737987920259	-0.0023651123	
1737987920260	-6.866455E-4	
1737987920261	-0.00793457	
1737987920262	-9.918213E-4	
1737987920263	0.004348755	
1737987920264	-0.00289917	
1737987920265	-7.6293945E-4	
1737987920266	0.0060272217	
1737987920267	0.0035095215	
1737987920268	0.0019073486	
1737987920269	-0.0015258789	
1737987920270	-0.0016784668	
1737987920271	5.340576E-4	
1737987920272	-0.004272461	
1737987920273	0.001449585	
1737987920274	0.001373291	
1737987920275	-0.0060272217	
1737987920276	0.0	
1737987920277	0.0024414062	
1737987920278	3.0517578E-4	
1737987920279	0.0022888184	
1737987920280	0.0031280518	
1737987920281	-1.5258789E-4	
1737987920282	-0.0019836426	
1737987920283	0.001373291	
1737987920284	0.00541687	
1737987920285	0.00289917	
1737987920286	-0.004043579	
1737987920287	-0.011138916	
1737987920288	-0.012741089	
1737987920289	-0.012817383	
1737987920290	-0.014801025	
1737987920291	-0.0051116943	
1737987920292	0.0015258789	
1737987920293	0.0047302246	
1737987920294	0.018310547	
1737987920295	0.019836426	
1737987920296	0.0119018555	
1737987920297	0.008544922	
1737987920298	9.918213E-4	
1737987920299	-0.001449585	
1737987920300	-0.0019073486	
1737987920301	-5.340576E-4	
1737987920302	0.0051116943	
1737987920303	0.0011444092	
1737987920304	0.0025177002	
1737987920305	0.0012207031	
1737987920306	-0.0073242188	
1737987920307	-0.0030517578	
1737987920308	-0.0010681152	
1737987920309	-0.0061798096	
1737987920310	-0.0018310547	
1737987920311	0.0019073486	
1737987920312	-7.6293945E-4	
1737987920313	-0.0062561035	
1737987920314	-0.014038086	
1737987920315	-0.009460449	
1737987920316	-0.0016784668	
1737987920317	-0.0049591064	
1737987920318	-3.8146973E-4	
1737987920319	0.0023651123	
1737987920320	0.0038146973	
1737987920321	0.010299683	
1737987920322	-3.0517578E-4	
1737987920323	-0.00579834	
1737987920324	-0.009231567	
1737987920325	3.8146973E-4	
1737987920326	0.030212402	
1737987920327	0.026168823	
1737987920328	0.016403198	
1737987920329	0.010299683	
1737987920330	-0.008468628	
1737987920331	-7.6293945E-4	
1737987920332	-0.0024414062	
1737987920333	-0.026245117	
1737987920334	-0.006790161	
1737987920335	0.020751953	
1737987920336	0.0060272217	
1737987920337	-0.02708435	
1737987920338	-0.04348755	
1737987920339	-0.019760132	
1737987920340	0.006713867	
1737987920341	0.013656616	
1737987920342	0.0020599365	
1737987920343	-0.012207031	
1737987920344	5.340576E-4	
1737987920345	0.015106201	
1737987920346	0.016937256	
1737987920347	0.0037384033	
1737987920348	-0.013427734	
1737987920349	-0.001373291	
1737987920350	0.01373291	
1737987920351	-0.0022125244	
1737987920352	-0.012207031	
1737987920353	0.0017547607	
1737987920354	0.010223389	
1737987920355	-0.0016784668	
1737987920356	-0.019454956	
1737987920357	-0.010910034	
1737987920358	0.019989014	
1737987920359	0.040130615	
1737987920360	0.047683716	
1737987920361	0.02960205	
1737987920362	-0.014419556	
1737987920363	-0.020065308	
1737987920364	-0.004425049	
1737987920365	-0.01373291	
1737987920366	-0.013122559	
1737987920367	-0.008163452	
1737987920368	-0.017318726	
1737987920369	-0.022964478	
1737987920370	-0.012969971	
1737987920371	-8.392334E-4	
1737987920372	-3.8146973E-4	
1737987920373	0.0048828125	
1737987920374	0.008621216	
1737987920375	0.0024414062	
1737987920376	-0.0038146973	
1737987920377	-0.010223389	
1737987920378	-0.009384155	
1737987920379	0.0037384033	
1737987920380	0.011520386	
1737987920381	0.0038146973	
1737987920382	0.0032806396	
1737987920383	0.008621216	
1737987920384	0.0051116943	
1737987920385	0.0059509277	
1737987920386	0.0063323975	
1737987920387	0.002670288	
1737987920388	-1.5258789E-4	
1737987920389	-2.2888184E-4	
1737987920390	0.0030517578	
1737987920391	-9.918213E-4	
1737987920392	-0.004501343	
1737987920393	-0.0030517578	
1737987920394	-0.0074768066	
1737987920395	-0.007247925	
1737987920396	0.0021362305	
1737987920397	0.0035095215	
1737987920398	3.8146973E-4	
1737987920399	-0.0024414062	
1737987920400	-0.0023651123	
1737987920401	0.0018310547	
1737987920402	-3.0517578E-4	
1737987920403	0.0017547607	
1737987920404	0.005645752	
1737987920405	0.0020599365	
1737987920406	-3.0517578E-4	
1737987920407	-0.0012207031	
1737987920408	-0.0017547607	
1737987920409	-0.0021362305	
1737987920410	-7.6293945E-4	
1737987920411	0.0032043457	
1737987920412	0.0021362305	
1737987920413	-0.0012969971	
1737987920414	-0.0019073486	
1737987920415	-0.0020599365	
1737987920416	-7.6293945E-5	
1737987920417	-0.0018310547	
1737987920418	-0.0029754639	
1737987920419	3.8146973E-4	
1737987920420	-0.003967285	
1737987920421	-3.8146973E-4	
1737987920422	0.0035858154	
1737987920423	-0.0023651123	
1737987920424	0.0017547607	
1737987920425	6.1035156E-4	
1737987920426	7.6293945E-4	
1737987920427	0.0051879883	
1737987920428	-0.0038146973	
1737987920429	-0.003967285	
1737987920430	-6.1035156E-4	
1737987920431	-6.1035156E-4	
1737987920432	0.0038146973	
1737987920433	0.0025177002	
1737987920434	0.0050354004	
1737987920435	0.0050354004	
1737987920436	-0.00289917	
1737987920437	-0.010681152	
1737987920438	-0.01335144	
1737987920439	3.0517578E-4	
1737987920440	0.004348755	
1737987920441	-0.0077056885	
1737987920442	-0.009384155	
1737987920443	0.0066375732	
1737987920444	0.026321411	
1737987920445	0.016860962	
1737987920446	-6.1035156E-4	
1737987920447	0.010604858	
1737987920448	0.012893677	
1737987920449	-0.0048065186	
1737987920450	-0.006942749	
1737987920451	-0.0046539307	
1737987920452	-0.0076293945	
1737987920453	-0.007171631	
1737987920454	-0.0090789795	
1737987920455	-0.011749268	
1737987920456	-0.009460449	
1737987920457	-0.002822876	
1737987920458	2.2888184E-4	
1737987920459	-0.0011444092	
1737987920460	-0.0019836426	
1737987920461	1.5258789E-4	
1737987920462	0.0033569336	
1737987920463	0.0063323975	
1737987920464	0.007171631	
1737987920465	6.866455E-4	
1737987920466	0.0024414062	
1737987920467	0.004196167	
1737987920468	-0.004043579	
1737987920469	-0.0025177002	
1737987920470	-6.866455E-4	
1737987920471	0.005874634	
1737987920472	0.011749268	
1737987920473	0.0018310547	
1737987920474	7.6293945E-5	
1737987920475	-0.002670288	
1737987920476	-0.0061798096	
1737987920477	-0.002822876	
1737987920478	-0.008163452	
1737987920479	-0.00793457	
1737987920480	-0.0020599365	
1737987920481	6.866455E-4	
1737987920482	0.0032806396	
1737987920483	0.004501343	
1737987920484	0.0090789795	
1737987920485	0.012359619	
1737987920486	0.0066375732	
1737987920487	-0.0023651123	
1737987920488	-0.0062561035	
1737987920489	-0.0018310547	
1737987920490	0.005722046	
1737987920491	0.0029754639	
1737987920492	-0.0019073486	
1737987920493	0.012588501	
1737987920494	0.008468628	
1737987920495	-0.018539429	
1737987920496	-0.01953125	
1737987920497	-0.02204895	
1737987920498	-0.008392334	
1737987920499	0.015945435	
1737987920500	-0.0063323975	
1737987920501	-0.02067566	
1737987920502	-0.0047302246	
1737987920503	0.01411438	
1737987920504	0.020828247	
1737987920505	-0.0016784668	
1737987920506	-0.011367798	
1737987920507	6.1035156E-4	
1737987920508	-0.0036621094	
1737987920509	0.005722046	
1737987920510	0.013885498	
1737987920511	0.0050354004	
1737987920512	0.0051879883	
1737987920513	-0.0011444092	
1737987920514	0.008392334	
1737987920515	0.013885498	
1737987920516	0.0011444092	
1737987920517	-0.0050354004	
1737987920518	-0.02029419	
1737987920519	-0.009384155	
1737987920520	0.013046265	
1737987920521	-0.0020599365	
1737987920522	-0.0060272217	
1737987920523	0.009994507	
1737987920524	0.01159668	
1737987920525	1.5258789E-4	
1737987920526	-0.0061798096	
1737987920527	-0.0017547607	
1737987920528	-0.0035858154	
1737987920529	4.5776367E-4	
1737987920530	0.0064086914	
1737987920531	-0.0021362305	
1737987920532	-0.0048828125	
1737987920533	-0.005645752	
1737987920534	-0.005874634	
1737987920535	0.0	
1737987920536	-0.0017547607	
1737987920537	-0.0020599365	
1737987920538	-0.0018310547	
1737987920539	-0.0065612793	
1737987920540	-0.0016021729	
1737987920541	0.005493164	
1737987920542	-0.0018310547	
1737987920543	-0.006790161	
1737987920544	0.00541687	
1737987920545	0.0076293945	
1737987920546	-0.0011444092	
1737987920547	0.0050354004	
1737987920548	0.0073242188	
1737987920549	0.0032043457	
1737987920550	0.004196167	
1737987920551	-0.001449585	
1737987920552	-0.0025939941	
1737987920553	-0.0029754639	
1737987920554	-2.2888184E-4	
1737987920555	2.2888184E-4	
1737987920556	-0.009384155	
1737987920557	-0.0030517578	
1737987920558	0.0033569336	
1737987920559	0.004272461	
1737987920560	0.0032806396	
1737987920561	-0.0019073486	
1737987920562	-9.918213E-4	
1737987920563	0.0010681152	
1737987920564	0.0032806396	
1737987920565	8.392334E-4	
1737987920566	-2.2888184E-4	
1737987920567	0.0	
1737987920568	-0.0024414062	
1737987920569	-0.001449585	
1737987920570	-0.0048065186	
1737987920571	-0.010299683	
1737987920572	-0.008926392	
1737987920573	-0.0023651123	
1737987920574	0.0104522705	
1737987920575	0.019454956	
1737987920576	0.010375977	
1737987920577	0.0032806396	
1737987920578	-0.0025177002	
1737987920579	-0.009460449	
1737987920580	-0.005340576	
1737987920581	-0.006713867	
1737987920582	-0.006790161	
1737987920583	-0.0010681152	
1737987920584	9.1552734E-4	
1737987920585	-3.8146973E-4	
1737987920586	-0.0034332275	
1737987920587	0.0032043457	
1737987920588	0.0037384033	
1737987920589	7.6293945E-5	
1737987920590	0.001373291	
1737987920591	-0.0024414062	
1737987920592	-0.00289917	
1737987920593	-1.5258789E-4	
1737987920594	0.00541687	
1737987920595	0.0031280518	
1737987920596	-3.0517578E-4	
1737987920597	-0.001449585	
1737987920598	-0.0066375732	
1737987920599	0.0020599365	
1737987920600	0.0046539307	
1737987920601	0.0016784668	
1737987920602	0.004501343	
1737987920603	0.004196167	
1737987920604	0.01083374	
1737987920605	0.0024414062	
1737987920606	-0.006942749	
1737987920607	0.00831604	
1737987920608	0.010528564	
1737987920609	0.0022888184	
1737987920610	-0.004501343	
1737987920611	-0.01663208	
1737987920612	-0.010147095	
1737987920613	-0.0010681152	
1737987920614	-0.011062622	
1737987920615	-0.012512207	
1737987920616	-0.0037384033	
1737987920617	0.004425049	
1737987920618	0.010604858	
1737987920619	0.0018310547	
1737987920620	-0.0077819824	
1737987920621	-0.009002686	
1737987920622	-0.0038146973	
1737987920623	0.024337769	
1737987920624	0.025939941	
1737987920625	-0.008544922	
1737987920626	-0.012130737	
1737987920627	-0.0025177002	
1737987920628	0.010070801	
1737987920629	0.028839111	
1737987920630	0.034561157	
1737987920631	0.029678345	
1737987920632	-0.010070801	
1737987920633	-0.05973816	
1737987920634	-0.03250122	
1737987920635	0.022354126	
1737987920636	-5.340576E-4	
1737987920637	-0.04425049	
1737987920638	-0.058898926	
1737987920639	-0.059127808	
1737987920640	-0.05722046	
1737987920641	-0.03211975	
1737987920642	0.039215088	
1737987920643	0.079422	
1737987920644	0.07209778	
1737987920645	0.05355835	
1737987920646	0.03173828	
1737987920647	0.018615723	
1737987920648	0.008010864	
1737987920649	0.028152466	
1737987920650	0.037002563	
1737987920651	0.0064849854	
1737987920652	0.008468628	
1737987920653	0.005722046	
1737987920654	-0.044631958	
1737987920655	-0.07461548	
1737987920656	-0.053329468	
1737987920657	-0.020446777	
1737987920658	-0.012664795	
1737987920659	-0.021743774	
1737987920660	-0.04234314	
1737987920661	-0.041732788	
1737987920662	0.023498535	
1737987920663	0.0868988	
1737987920664	0.075683594	
1737987920665	-0.0032043457	
1737987920666	-0.050735474	
1737987920667	-0.0019073486	
1737987920668	0.027770996	
1737987920669	-0.028839111	
1737987920670	-0.051651	
1737987920671	0.009155273	
1737987920672	0.04234314	
1737987920673	0.038909912	
1737987920674	0.03883362	
1737987920675	0.015945435	
1737987920676	-0.026931763	
1737987920677	-0.044326782	
1737987920678	-0.0075531006	
1737987920679	0.023727417	
1737987920680	0.024337769	
1737987920681	-0.012207031	
1737987920682	-0.030136108	
1737987920683	0.011138916	
1737987920684	0.025177002	
1737987920685	0.021209717	
1737987920686	0.011749268	
1737987920687	-0.010223389	
1737987920688	-0.020370483	
1737987920689	-0.02067566	
1737987920690	-0.0073242188	
1737987920691	0.00289917	
1737987920692	-0.0016784668	
1737987920693	-0.016403198	
1737987920694	-0.03036499	
1737987920695	-0.016784668	
1737987920696	0.017852783	
1737987920697	0.037460327	
1737987920698	0.021896362	
1737987920699	-0.0064086914	
1737987920700	-0.029830933	
1737987920701	-0.04547119	
1737987920702	-0.04005432	
1737987920703	-0.021896362	
1737987920704	-0.008239746	
1737987920705	0.00831604	
1737987920706	0.029907227	
1737987920707	0.026855469	
1737987920708	0.0146484375	
1737987920709	0.019683838	
1737987920710	0.017929077	
1737987920711	0.014724731	
1737987920712	0.017471313	
1737987920713	0.0146484375	
1737987920714	0.011444092	
1737987920715	6.1035156E-4	
1737987920716	-0.0051116943	
1737987920717	0.0	
1737987920718	0.0011444092	
1737987920719	7.6293945E-5	
1737987920720	-0.0032806396	
1737987920721	-0.0019073486	
1737987920722	-0.004425049	
1737987920723	-0.006942749	
1737987920724	-0.0059509277	
1737987920725	-0.0046539307	
1737987920726	0.0012969971	
1737987920727	-0.0030517578	
1737987920728	-0.005722046	
1737987920729	-0.005264282	
1737987920730	-0.0063323975	
1737987920731	0.0012969971	
1737987920732	0.010299683	
1737987920733	0.019073486	
1737987920734	0.0077056885	
1737987920735	-0.021972656	
1737987920736	-0.031280518	
1737987920737	-0.032348633	
1737987920738	-0.03189087	
1737987920739	-0.0118255615	
1737987920740	0.017166138	
1737987920741	0.03540039	
1737987920742	0.018692017	
1737987920743	-0.01335144	
1737987920744	-0.01373291	
1737987920745	0.0061035156	
1737987920746	0.012664795	
1737987920747	0.006866455	
1737987920748	0.015563965	
1737987920749	0.041275024	
1737987920750	0.037231445	
1737987920751	0.0146484375	
1737987920752	-0.004501343	
1737987920753	-0.04295349	
1737987920754	-0.044021606	
1737987920755	-0.022659302	
1737987920756	-0.033569336	
1737987920757	-0.010223389	
1737987920758	0.01625061	
1737987920759	0.0016784668	
1737987920760	0.009994507	
1737987920761	0.025253296	
1737987920762	0.027313232	
1737987920763	0.021972656	
1737987920764	0.0050354004	
1737987920765	0.004501343	
1737987920766	0.005722046	
1737987920767	-0.008926392	
1737987920768	-0.023117065	
1737987920769	-0.042800903	
1737987920770	-0.035095215	
1737987920771	0.017623901	
1737987920772	0.03501892	
1737987920773	0.01449585	
1737987920774	0.010910034	
1737987920775	0.0016784668	
1737987920776	-0.005722046	
1737987920777	-0.012741089	
1737987920778	-0.040664673	
1737987920779	-0.033798218	
1737987920780	-0.0032043457	
1737987920781	0.016860962	
1737987920782	0.030059814	
1737987920783	0.02281189	
1737987920784	0.021591187	
1737987920785	0.02029419	
1737987920786	0.019607544	
1737987920787	0.025100708	
1737987920788	-6.866455E-4	
1737987920789	-0.027694702	
1737987920790	-0.037078857	
1737987920791	-0.028839111	
1737987920792	-0.00869751	
1737987920793	-0.011367798	
1737987920794	-0.005722046	
1737987920795	0.0045776367	
1737987920796	0.0020599365	
1737987920797	0.008392334	
1737987920798	0.0076293945	
1737987920799	0.010757446	
1737987920800	0.015182495	
1737987920801	0.0034332275	
1737987920802	-0.0029754639	
1737987920803	0.0012207031	
1737987920804	0.004196167	
1737987920805	-7.6293945E-5	
1737987920806	-0.0047302246	
1737987920807	-0.0061035156	
1737987920808	-0.0063323975	
1737987920809	-0.0021362305	
1737987920810	-7.6293945E-4	
1737987920811	-0.011672974	
1737987920812	-2.2888184E-4	
1737987920813	0.026168823	
1737987920814	0.0010681152	
1737987920815	-0.03211975	
1737987920816	-0.031661987	
1737987920817	-0.020904541	
1737987920818	0.013885498	
1737987920819	0.029754639	
1737987920820	0.015106201	
1737987920821	0.01739502	
1737987920822	0.017852783	
1737987920823	0.004501343	
1737987920824	-0.015258789	
1737987920825	-0.017242432	
1737987920826	0.0015258789	
1737987920827	0.010299683	
1737987920828	0.0073242188	
1737987920829	-0.0016784668	
1737987920830	-0.0018310547	
1737987920831	-0.0033569336	
1737987920832	-0.009460449	
1737987920833	-0.0050354004	
1737987920834	-0.0034332275	
1737987920835	-0.004501343	
1737987920836	-0.0062561035	
1737987920837	-0.0020599365	
1737987920838	0.01373291	
1737987920839	0.01335144	
1737987920840	-0.004043579	
1737987920841	-0.0060272217	
1737987920842	0.0049591064	
1737987920843	0.012207031	
1737987920844	0.00869751	
1737987920845	-0.0018310547	
1737987920846	-0.0012969971	
1737987920847	-2.2888184E-4	
1737987920848	-0.0046539307	
1737987920849	-0.010986328	
1737987920850	-0.0118255615	
1737987920851	0.002822876	
1737987920852	0.00579834	
1737987920853	-0.0032806396	
1737987920854	-0.0061798096	
1737987920855	-3.8146973E-4	
1737987920856	0.0045776367	
1737987920857	0.002670288	
1737987920858	0.00579834	
1737987920859	-0.0012207031	
1737987920860	-0.008544922	
1737987920861	-0.010604858	
1737987920862	-0.011749268	
1737987920863	0.0023651123	
1737987920864	0.0076293945	
1737987920865	0.011367798	
1737987920866	0.01953125	
1737987920867	0.0090789795	
1737987920868	0.005264282	
1737987920869	0.0061798096	
1737987920870	-0.0017547607	
1737987920871	-0.007095337	
1737987920872	-0.004425049	
1737987920873	-0.005264282	
1737987920874	-0.008392334	
1737987920875	-0.0016784668	
1737987920876	-0.009460449	
1737987920877	-0.017623901	
1737987920878	-0.018005371	
1737987920879	-0.016021729	
1737987920880	0.006713867	
1737987920881	0.018615723	
1737987920882	0.015945435	
1737987920883	0.012664795	
1737987920884	0.007019043	
1737987920885	-0.010299683	
1737987920886	-0.023727417	
1737987920887	0.003967285	
1737987920888	0.0076293945	
1737987920889	-0.0045776367	
1737987920890	0.0046539307	
1737987920891	-0.0049591064	
1737987920892	0.0077819824	
1737987920893	0.02067566	
1737987920894	0.00831604	
1737987920895	0.01121521	
1737987920896	0.01121521	
1737987920897	8.392334E-4	
1737987920898	-0.010223389	
1737987920899	-0.011749268	
1737987920900	-0.007095337	
1737987920901	-0.0019073486	
1737987920902	0.010375977	
1737987920903	0.008468628	
1737987920904	-4.5776367E-4	
1737987920905	0.0050354004	
1737987920906	-0.0051879883	
1737987920907	-0.016403198	
1737987920908	-0.0077056885	
1737987920909	-0.008621216	
1737987920910	1.5258789E-4	
1737987920911	0.004348755	
1737987920912	-0.01083374	
1737987920913	-0.011749268	
1737987920914	-0.018615723	
1737987920915	-0.018081665	
1737987920916	0.00793457	
1737987920917	0.017623901	
1737987920918	0.012130737	
1737987920919	0.010299683	
1737987920920	0.008544922	
1737987920921	0.0035858154	
1737987920922	-0.014343262	
1737987920923	-0.026397705	
1737987920924	-0.019607544	
1737987920925	0.0012207031	
1737987920926	0.027694702	
1737987920927	0.029067993	
1737987920928	0.0076293945	
1737987920929	0.0064849854	
1737987920930	0.04043579	
1737987920931	0.039978027	
1737987920932	5.340576E-4	
1737987920933	-0.012664795	
1737987920934	-0.037002563	
1737987920935	-0.06637573	
1737987920936	-0.041656494	
1737987920937	0.014266968	
1737987920938	0.03326416	
1737987920939	0.022125244	
1737987920940	0.021743774	
1737987920941	6.866455E-4	
1737987920942	-0.016555786	
1737987920943	-0.005645752	
1737987920944	-0.0025177002	
1737987920945	0.008926392	
1737987920946	0.0011444092	
1737987920947	-0.023117065	
1737987920948	-0.020904541	
1737987920949	-0.01586914	
1737987920950	0.0020599365	
1737987920951	0.022506714	
1737987920952	0.01373291	
1737987920953	-8.392334E-4	
1737987920954	-0.0074005127	
1737987920955	-4.5776367E-4	
1737987920956	0.0090789795	
1737987920957	4.5776367E-4	
1737987920958	-0.008468628	
1737987920959	-0.0036621094	
1737987920960	0.0016021729	
1737987920961	0.009231567	
1737987920962	0.01876831	
1737987920963	0.009918213	
1737987920964	0.0020599365	
1737987920965	0.0061035156	
1737987920966	-5.340576E-4	
1737987920967	-0.0064086914	
1737987920968	-0.0032043457	
1737987920969	-0.0045776367	
1737987920970	-0.008850098	
1737987920971	-0.009536743	
1737987920972	-0.0074768066	
1737987920973	0.0015258789	
1737987920974	0.011138916	
1737987920975	0.015258789	
1737987920976	0.017929077	
1737987920977	-0.009918213	
1737987920978	-0.07606506	
1737987920979	-0.07698059	
1737987920980	0.010757446	
1737987920981	0.05706787	
1737987920982	0.017166138	
1737987920983	-0.0016784668	
1737987920984	0.029220581	
1737987920985	0.009155273	
1737987920986	-0.0012969971	
1737987920987	0.03387451	
1737987920988	0.046310425	
1737987920989	0.017623901	
1737987920990	-0.05355835	
1737987920991	-0.060577393	
1737987920992	-0.021209717	
1737987920993	0.0048828125	
1737987920994	0.03593445	
1737987920995	0.03540039	
1737987920996	0.0132751465	
1737987920997	-0.010299683	
1737987920998	-0.01625061	
1737987920999	-1.5258789E-4	
1737987921000	-0.0016021729	
1737987921001	-0.0018310547	
1737987921002	0.011520386	
1737987921003	-0.004196167	
1737987921004	-0.018692017	
1737987921005	-0.015029907	
1737987921006	-0.0073242188	
1737987921007	2.2888184E-4	
1737987921008	-0.016937256	
1737987921009	-0.013122559	
1737987921010	0.0066375732	
1737987921011	0.007095337	
1737987921012	0.020980835	
1737987921013	0.017547607	
1737987921014	-0.016326904	
1737987921015	-0.01953125	
1737987921016	0.008621216	
1737987921017	0.009002686	
1737987921018	-0.013427734	
1737987921019	-0.005722046	
1737987921020	0.005645752	
1737987921021	-0.009765625	
1737987921022	-0.012359619	
1737987921023	0.005874634	
1737987921024	0.019454956	
1737987921025	0.016021729	
1737987921026	0.014419556	
1737987921027	0.01838684	
1737987921028	0.008010864	
1737987921029	0.0024414062	
1737987921030	0.009918213	
1737987921031	0.011672974	
1737987921032	0.015335083	
1737987921033	0.013961792	
1737987921034	-0.014877319	
1737987921035	-0.032424927	
1737987921036	-0.03288269	
1737987921037	-0.039215088	
1737987921038	-0.029220581	
1737987921039	-0.0025939941	
1737987921040	0.015411377	
1737987921041	0.004272461	
1737987921042	-0.0049591064	
1737987921043	0.0061798096	
1737987921044	0.006942749	
1737987921045	0.005569458	
1737987921046	0.0060272217	
1737987921047	0.0059509277	
1737987921048	0.0046539307	
1737987921049	0.0022125244	
1737987921050	0.0064849854	
1737987921051	0.00579834	
1737987921052	0.0047302246	
1737987921053	-1.5258789E-4	
1737987921054	-0.005645752	
1737987921055	0.004348755	
1737987921056	0.0051116943	
1737987921057	0.0012969971	
1737987921058	-0.0010681152	
1737987921059	-0.009536743	
1737987921060	-0.008850098	
1737987921061	0.0011444092	
1737987921062	0.021133423	
1737987921063	0.027313232	
1737987921064	0.004348755	
1737987921065	-0.011291504	
1737987921066	-0.0051116943	
1737987921067	-0.012283325	
1737987921068	-0.03173828	
1737987921069	-0.015029907	
1737987921070	-0.0016021729	
1737987921071	-0.014801025	
1737987921072	0.0024414062	
1737987921073	0.022125244	
1737987921074	0.012283325	
1737987921075	-0.016784668	
1737987921076	-0.034103394	
1737987921077	-0.0030517578	
1737987921078	0.007171631	
1737987921079	-0.010910034	
1737987921080	0.005264282	
1737987921081	0.01411438	
1737987921082	0.018081665	
1737987921083	0.028381348	
1737987921084	0.018081665	
1737987921085	0.0074768066	
1737987921086	0.008468628	
1737987921087	0.012130737	
1737987921088	0.011291504	
1737987921089	0.007171631	
1737987921090	-0.0029754639	
1737987921091	-0.013885498	
1737987921092	-0.016098022	
1737987921093	-0.01373291	
1737987921094	-0.012130737	
1737987921095	-0.013427734	
1737987921096	-0.01701355	
1737987921097	-0.009384155	
1737987921098	0.005722046	
1737987921099	0.008773804	
1737987921100	-0.0021362305	
1737987921101	-0.018920898	
1737987921102	-0.022659302	
1737987921103	-0.018997192	
1737987921104	0.0022888184	
1737987921105	0.057754517	
1737987921106	0.05470276	
1737987921107	0.00831604	
1737987921108	0.011672974	
1737987921109	9.1552734E-4	
1737987921110	-0.022583008	
1737987921111	-0.018234253	
1737987921112	-0.006790161	
1737987921113	0.018463135	
1737987921114	0.0062561035	
1737987921115	-0.04096985	
1737987921116	-0.01777649	
1737987921117	0.024414062	
1737987921118	0.014877319	
1737987921119	0.03540039	
1737987921120	0.057296753	
1737987921121	0.014419556	
1737987921122	-0.032577515	
1737987921123	-0.04737854	
1737987921124	-0.041122437	
1737987921125	-0.04310608	
1737987921126	-0.03677368	
1737987921127	-0.0017547607	
1737987921128	0.02571106	
1737987921129	0.004043579	
1737987921130	-0.10345459	
1737987921131	-0.16983032	
1737987921132	-0.06416321	
1737987921133	0.04295349	
1737987921134	0.05973816	
1737987921135	0.077819824	
1737987921136	0.08293152	
1737987921137	0.06690979	
1737987921138	0.059051514	
1737987921139	0.05645752	
1737987921140	0.05203247	
1737987921141	0.045928955	
1737987921142	0.04699707	
1737987921143	0.038757324	
1737987921144	0.022659302	
1737987921145	0.007019043	
1737987921146	-0.0090789795	
1737987921147	-0.025100708	
1737987921148	-0.04837036	
1737987921149	-0.052719116	
1737987921150	-0.03883362	
1737987921151	-0.03387451	
1737987921152	-0.026931763	
1737987921153	-0.020217896	
1737987921154	-0.013427734	
1737987921155	-0.00289917	
1737987921156	-0.010604858	
1737987921157	-0.01121521	
1737987921158	-0.013809204	
1737987921159	-0.03425598	
1737987921160	-0.024719238	
1737987921161	-0.014343262	
1737987921162	-0.03135681	
1737987921163	-0.02494812	
1737987921164	-0.0016784668	
1737987921165	0.0010681152	
1737987921166	0.008087158	
1737987921167	0.02494812	
1737987921168	0.028076172	
1737987921169	0.029830933	
1737987921170	0.023498535	
1737987921171	0.012893677	
1737987921172	0.010604858	
1737987921173	0.006866455	
1737987921174	0.013580322	
1737987921175	0.02609253	
1737987921176	0.024108887	
1737987921177	0.015792847	
1737987921178	0.0011444092	
1737987921179	-0.0066375732	
1737987921180	0.0064086914	
1737987921181	0.004272461	
1737987921182	-0.009613037	
1737987921183	-0.014572144	
1737987921184	-0.023803711	
1737987921185	-0.011291504	
1737987921186	0.010986328	
1737987921187	0.012435913	
1737987921188	0.0075531006	
1737987921189	-0.018997192	
1737987921190	-0.038909912	
1737987921191	-0.012359619	
1737987921192	0.0015258789	
1737987921193	-0.0104522705	
1737987921194	-0.008468628	
1737987921195	-0.008468628	
1737987921196	0.0032806396	
1737987921197	0.014038086	
1737987921198	0.0051879883	
1737987921199	0.015029907	
1737987921200	0.012741089	
1737987921201	0.004425049	
1737987921202	0.013961792	
1737987921203	0.013198853	
1737987921204	0.0061798096	
1737987921205	0.0035858154	
1737987921206	0.002746582	
1737987921207	-0.0023651123	
1737987921208	-0.0038909912	
1737987921209	-0.0077056885	
1737987921210	-0.016021729	
1737987921211	-0.008850098	
1737987921212	0.0034332275	
1737987921213	0.008926392	
1737987921214	0.010223389	
1737987921215	0.017852783	
1737987921216	0.0077056885	
1737987921217	-0.014190674	
1737987921218	-0.02670288	
1737987921219	-0.060958862	
1737987921220	-0.06011963	
1737987921221	-0.022659302	
1737987921222	-0.012054443	
1737987921223	0.017700195	
1737987921224	0.040512085	
1737987921225	0.03479004	
1737987921226	0.02243042	
1737987921227	0.023651123	
1737987921228	0.055847168	
1737987921229	0.04638672	
1737987921230	-0.0023651123	
1737987921231	-0.027694702	
1737987921232	-0.023269653	
1737987921233	-0.014953613	
1737987921234	0.0020599365	
1737987921235	0.011978149	
1737987921236	-0.010299683	
1737987921237	-0.002822876	
1737987921238	-0.011672974	
1737987921239	-0.03387451	
1737987921240	-0.019378662	
1737987921241	-0.012664795	
1737987921242	0.015182495	
1737987921243	0.026397705	
1737987921244	0.009384155	
1737987921245	-8.392334E-4	
1737987921246	-0.026397705	
1737987921247	-0.019378662	
1737987921248	0.0049591064	
1737987921249	0.0064086914	
1737987921250	0.008926392	
1737987921251	0.010757446	
1737987921252	0.013885498	
1737987921253	0.016555786	
1737987921254	0.01411438	
1737987921255	0.0118255615	
1737987921256	0.0019836426	
1737987921257	-0.010528564	
1737987921258	-0.008163452	
1737987921259	-0.007171631	
1737987921260	-0.0076293945	
1737987921261	0.0065612793	
1737987921262	0.0061798096	
1737987921263	-0.02418518	
1737987921264	-0.07102966	
1737987921265	-0.052642822	
1737987921266	0.019836426	
1737987921267	-0.0050354004	
1737987921268	-0.011978149	
1737987921269	0.11001587	
1737987921270	0.17158508	
1737987921271	0.1272583	
1737987921272	0.052337646	
1737987921273	-0.037460327	
1737987921274	-0.16296387	
1737987921275	-0.23605347	
1737987921276	-0.11505127	
1737987921277	0.007095337	
1737987921278	0.018844604	
1737987921279	0.02243042	
1737987921280	0.0020599365	
1737987921281	0.0035858154	
1737987921282	0.029830933	
1737987921283	-0.0035095215	
1737987921284	-0.016860962	
1737987921285	0.045013428	
1737987921286	0.07507324	
1737987921287	0.05897522	
1737987921288	0.029144287	
1737987921289	-0.0018310547	
1737987921290	0.007095337	
1737987921291	-0.0019836426	
1737987921292	-0.03929138	
1737987921293	-0.011291504	
1737987921294	0.044326782	
1737987921295	0.041809082	
1737987921296	0.009918213	
1737987921297	-0.01777649	
1737987921298	-0.028839111	
1737987921299	-0.025482178	
1737987921300	-0.04058838	
1737987921301	-0.022506714	
1737987921302	0.029830933	
1737987921303	0.035095215	
1737987921304	0.03326416	
1737987921305	0.019454956	
1737987921306	-0.036239624	
1737987921307	-0.04875183	
1737987921308	-0.019989014	
1737987921309	0.012969971	
1737987921310	0.040283203	
1737987921311	0.008239746	
1737987921312	-0.03807068	
1737987921313	-0.03768921	
1737987921314	-0.0025939941	
1737987921315	-0.010604858	
1737987921316	-0.08796692	
1737987921317	-0.08644104	
1737987921318	-0.0017547607	
1737987921319	0.04371643	
1737987921320	0.056915283	
1737987921321	0.051345825	
1737987921322	0.022735596	
1737987921323	0.008010864	
1737987921324	0.0132751465	
1737987921325	0.010681152	
1737987921326	0.012969971	
1737987921327	0.030899048	
1737987921328	0.03135681	
1737987921329	0.019989014	
1737987921330	0.013885498	
1737987921331	-4.5776367E-4	
1737987921332	-0.011672974	
1737987921333	-0.011138916	
1737987921334	-0.014343262	
1737987921335	-0.01335144	
1737987921336	-0.005569458	
1737987921337	-0.011444092	
1737987921338	-0.017089844	
1737987921339	-0.013427734	
1737987921340	-0.020141602	
1737987921341	-0.026245117	
1737987921342	-0.015487671	
1737987921343	-0.005569458	
1737987921344	-0.0017547607	
1737987921345	0.0012969971	
1737987921346	0.0012207031	
1737987921347	0.0035095215	
1737987921348	-0.0019836426	
1737987921349	0.005569458	
1737987921350	0.0118255615	
1737987921351	-0.002746582	
1737987921352	0.0025939941	
1737987921353	0.004348755	
1737987921354	0.011062622	
1737987921355	0.032577515	
1737987921356	0.023880005	
1737987921357	0.010070801	
1737987921358	0.0	
1737987921359	-0.008544922	
1737987921360	-0.0034332275	
1737987921361	-0.0065612793	
1737987921362	-0.0047302246	
1737987921363	0.002746582	
1737987921364	-0.0010681152	
1737987921365	4.5776367E-4	
1737987921366	0.0074768066	
1737987921367	0.0063323975	
1737987921368	-0.0025177002	
1737987921369	-0.008621216	
1737987921370	-0.020446777	
1737987921371	-0.023040771	
1737987921372	-0.0034332275	
1737987921373	-7.6293945E-4	
1737987921374	0.0038146973	
1737987921375	0.016479492	
1737987921376	0.013046265	
1737987921377	0.015258789	
1737987921378	0.0063323975	
1737987921379	-0.013122559	
1737987921380	-0.02708435	
1737987921381	-0.02418518	
1737987921382	-0.0132751465	
1737987921383	-0.020370483	
1737987921384	-0.005874634	
1737987921385	0.01625061	
1737987921386	0.021362305	
1737987921387	0.03074646	
1737987921388	0.028762817	
1737987921389	0.017242432	
1737987921390	0.007019043	
1737987921391	0.0016784668	
1737987921392	-0.0059509277	
1737987921393	-0.026931763	
1737987921394	-0.01159668	
1737987921395	0.023345947	
1737987921396	-0.039596558	
1737987921397	-0.09490967	
1737987921398	-0.015258789	
1737987921399	0.05027771	
1737987921400	0.0037384033	
1737987921401	-0.029449463	
1737987921402	0.028076172	
1737987921403	0.042114258	
1737987921404	0.025405884	
1737987921405	0.038986206	
1737987921406	0.027389526	
1737987921407	0.020065308	
1737987921408	-0.0022888184	
1737987921409	-0.024795532	
1737987921410	-0.0063323975	
1737987921411	0.021438599	
1737987921412	0.03036499	
1737987921413	-0.0051116943	
1737987921414	-0.027389526	
1737987921415	-0.039367676	
1737987921416	-0.061264038	
1737987921417	-0.018615723	
1737987921418	0.034866333	
1737987921419	0.024719238	
1737987921420	-0.039978027	
1737987921421	-0.11154175	
1737987921422	-0.08049011	
1737987921423	0.019378662	
1737987921424	0.071640015	
1737987921425	0.04081726	
1737987921426	3.0517578E-4	
1737987921427	0.033493042	
1737987921428	0.052719116	
1737987921429	0.032424927	
1737987921430	0.022201538	
1737987921431	0.014572144	
1737987921432	0.004043579	
1737987921433	0.0012969971	
1737987921434	0.00579834	
1737987921435	-0.0012207031	
1737987921436	0.0029754639	
1737987921437	0.004348755	
1737987921438	-0.008163452	
1737987921439	-0.02571106	
1737987921440	-0.055389404	
1737987921441	-0.044555664	
1737987921442	-0.0030517578	
1737987921443	0.015029907	
1737987921444	0.021743774	
1737987921445	0.013198853	
1737987921446	-0.0018310547	
1737987921447	-0.009841919	
1737987921448	-0.012054443	
1737987921449	0.0025177002	
1737987921450	0.005493164	
1737987921451	-0.0033569336	
1737987921452	-0.0024414062	
1737987921453	8.392334E-4	
1737987921454	9.1552734E-4	
1737987921455	-0.0010681152	
1737987921456	-0.0025939941	
1737987921457	-0.004501343	
1737987921458	0.0037384033	
1737987921459	0.0010681152	
1737987921460	-0.0118255615	
1737987921461	3.0517578E-4	
1737987921462	0.010910034	
1737987921463	0.0051116943	
1737987921464	0.002670288	
1737987921465	0.008010864	
1737987921466	0.0077819824	
1737987921467	-3.0517578E-4	
1737987921468	0.0046539307	
1737987921469	0.0064086914	
1737987921470	0.002670288	
1737987921471	0.003967285	
1737987921472	-0.004348755	
1737987921473	-0.005722046	
1737987921474	0.002670288	
1737987921475	0.002670288	
1737987921476	-0.00289917	
1737987921477	-0.002670288	
1737987921478	8.392334E-4	
1737987921479	-0.0016784668	
1737987921480	2.2888184E-4	
1737987921481	-3.0517578E-4	
1737987921482	-0.009765625	
1737987921483	-0.0031280518	
1737987921484	0.0062561035	
1737987921485	0.004272461	
1737987921486	-0.0021362305	
1737987921487	-0.005645752	
1737987921488	-0.0017547607	
1737987921489	-0.006713867	
1737987921490	-0.0050354004	
1737987921491	9.918213E-4	
1737987921492	0.002670288	
1737987921493	0.006942749	
1737987921494	0.004425049	
1737987921495	-9.918213E-4	
1737987921496	-0.013046265	
1737987921497	-0.012359619	
1737987921498	-0.002670288	
1737987921499	-0.011749268	
1737987921500	-0.0019836426	
1737987921501	0.02571106	
1737987921502	0.04196167	
1737987921503	0.027160645	
1737987921504	-0.02166748	
1737987921505	-0.023117065	
1737987921506	0.009307861	
1737987921507	0.0118255615	
1737987921508	0.0033569336	
1737987921509	-0.013504028	
1737987921510	-0.021133423	
1737987921511	-0.024261475	
1737987921512	-0.011672974	
1737987921513	0.013885498	
1737987921514	-0.008773804	
1737987921515	-0.030288696	
1737987921516	-0.010604858	
1737987921517	0.022964478	
1737987921518	0.059890747	
1737987921519	0.04234314	
1737987921520	-0.009460449	
1737987921521	-0.026245117	
1737987921522	-0.041046143	
1737987921523	-0.035705566	
1737987921524	-8.392334E-4	
1737987921525	0.015258789	
1737987921526	0.023117065	
1737987921527	0.01991272	
1737987921528	0.012359619	
1737987921529	0.0074768066	
1737987921530	-0.0010681152	
1737987921531	0.0030517578	
1737987921532	0.016021729	
1737987921533	0.02494812	
1737987921534	0.010299683	
1737987921535	-0.024490356	
1737987921536	-0.052108765	
1737987921537	-0.03517151	
1737987921538	0.012817383	
1737987921539	0.022583008	
1737987921540	0.02708435	
1737987921541	0.04638672	
1737987921542	0.029830933	
1737987921543	0.00579834	
1737987921544	-0.022583008	
1737987921545	-0.100479126	
1737987921546	-0.15388489	
1737987921547	-0.045394897	
1737987921548	0.09529114	
1737987921549	0.06286621	
1737987921550	0.004272461	
1737987921551	0.008850098	
1737987921552	0.029296875	
1737987921553	0.07194519	
1737987921554	0.038986206	
1737987921555	-0.01335144	
1737987921556	-0.0077819824	
1737987921557	-0.033798218	
1737987921558	-0.02670288	
1737987921559	0.00579834	
1737987921560	0.0016021729	
1737987921561	0.009689331	
1737987921562	0.01701355	
1737987921563	0.036468506	
1737987921564	0.03211975	
1737987921565	0.0051879883	
1737987921566	0.017929077	
1737987921567	-0.03677368	
1737987921568	-0.14152527	
1737987921569	-0.14717102	
1737987921570	-0.053482056	
1737987921571	0.014419556	
1737987921572	0.024795532	
1737987921573	0.07850647	
1737987921574	0.0920105	
1737987921575	0.037765503	
1737987921576	-0.004043579	
1737987921577	-0.05722046	
1737987921578	-0.05104065	
1737987921579	-0.005874634	
1737987921580	0.0032043457	
1737987921581	0.047073364	
1737987921582	0.08354187	
1737987921583	0.04096985	
1737987921584	0.027694702	
1737987921585	0.0365448	
1737987921586	0.03463745	
1737987921587	0.07972717	
1737987921588	0.046157837	
1737987921589	-0.07423401	
1737987921590	-0.13183594	
1737987921591	-0.13717651	
1737987921592	-0.082473755	
1737987921593	-0.026779175	
1737987921594	-0.012512207	
1737987921595	0.034484863	
1737987921596	0.04081726	
1737987921597	0.044403076	
1737987921598	0.049819946	
1737987921599	-0.024261475	
1737987921600	-0.04562378	
1737987921601	0.009994507	
1737987921602	0.025558472	
1737987921603	-0.0077056885	
1737987921604	0.014266968	
1737987921605	0.075531006	
1737987921606	0.0566864	
1737987921607	0.002746582	
1737987921608	-0.012969971	
1737987921609	0.0050354004	
1737987921610	0.0061035156	
1737987921611	-0.018997192	
1737987921612	-0.019454956	
1737987921613	-0.0074768066	
1737987921614	-0.0029754639	
1737987921615	-0.0074005127	
1737987921616	-0.009002686	
1737987921617	-0.006790161	
1737987921618	-0.02029419	
1737987921619	-0.025253296	
1737987921620	-0.011367798	
1737987921621	-1.5258789E-4	
1737987921622	0.0022888184	
1737987921623	-3.8146973E-4	
1737987921624	-0.00541687	
1737987921625	-0.010223389	
1737987921626	-0.01159668	
1737987921627	-0.017089844	
1737987921628	-0.011749268	
1737987921629	0.013580322	
1737987921630	0.020904541	
1737987921631	0.014572144	
1737987921632	0.017852783	
1737987921633	0.0035858154	
1737987921634	-0.0036621094	
1737987921635	0.0062561035	
1737987921636	0.0104522705	
1737987921637	0.023727417	
1737987921638	0.018997192	
1737987921639	0.0051116943	
1737987921640	-0.008468628	
1737987921641	-0.02960205	
1737987921642	-0.02357483	
1737987921643	-0.020141602	
1737987921644	-0.007171631	
1737987921645	0.00793457	
1737987921646	-0.0032043457	
1737987921647	-0.0119018555	
1737987921648	-0.008468628	
1737987921649	0.024414062	
1737987921650	0.056762695	
1737987921651	0.053634644	
1737987921652	-9.1552734E-4	
1737987921653	-0.029067993	
1737987921654	-0.010986328	
1737987921655	-0.018920898	
1737987921656	-0.001373291	
1737987921657	7.6293945E-4	
1737987921658	-0.019683838	
1737987921659	0.009384155	
1737987921660	0.023269653	
1737987921661	0.014572144	
1737987921662	0.019302368	
1737987921663	0.019683838	
1737987921664	0.009155273	
1737987921665	-0.030975342	
1737987921666	-0.07698059	
1737987921667	-0.08476257	
1737987921668	-0.05569458	
1737987921669	-0.010757446	
1737987921670	-0.017318726	
1737987921671	-0.0050354004	
1737987921672	0.12207031	
1737987921673	0.20019531	
1737987921674	0.08338928	
1737987921675	-0.050201416	
1737987921676	-0.08262634	
1737987921677	-0.1322174	
1737987921678	-0.11734009	
1737987921679	-0.017700195	
1737987921680	0.036849976	
1737987921681	0.052719116	
1737987921682	0.029830933	
1737987921683	0.018844604	
1737987921684	0.04447937	
1737987921685	0.03326416	
1737987921686	0.019073486	
1737987921687	0.03967285	
1737987921688	0.06896973	
1737987921689	0.05821228	
1737987921690	-0.008850098	
1737987921691	-0.036697388	
1737987921692	-0.040664673	
1737987921693	-0.0693512	
1737987921694	-0.09849548	
1737987921695	-0.1108551	
1737987921696	-0.04585266	
1737987921697	0.008010864	
1737987921698	0.01838684	
1737987921699	0.059814453	
1737987921700	0.062179565	
1737987921701	0.04119873	
1737987921702	0.024337769	
1737987921703	-0.004043579	
1737987921704	0.0019836426	
1737987921705	0.0060272217	
1737987921706	-0.032196045	
1737987921707	-0.03768921	
1737987921708	0.020370483	
1737987921709	0.031967163	
1737987921710	0.011672974	
1737987921711	0.009384155	
1737987921712	0.013504028	
1737987921713	0.026321411	
1737987921714	0.002746582	
1737987921715	0.0046539307	
1737987921716	-0.028381348	
1737987921717	-0.10231018	
1737987921718	-0.038604736	
1737987921719	0.035705566	
1737987921720	0.07286072	
1737987921721	0.08140564	
1737987921722	-0.046844482	
1737987921723	-0.09529114	
1737987921724	-0.04890442	
1737987921725	-0.030899048	
1737987921726	0.022964478	
1737987921727	0.031280518	
1737987921728	0.028762817	
1737987921729	0.035095215	
1737987921730	0.033111572	
1737987921731	0.07194519	
1737987921732	0.0605011	
1737987921733	-0.06187439	
1737987921734	-0.18013	
1737987921735	-0.081329346	
1737987921736	0.08918762	
1737987921737	0.060806274	
1737987921738	9.918213E-4	
1737987921739	0.026397705	
1737987921740	0.040512085	
1737987921741	0.017700195	
1737987921742	-0.018539429	
1737987921743	-0.008773804	
1737987921744	0.009841919	
1737987921745	-7.6293945E-4	
1737987921746	-0.0020599365	
1737987921747	0.0049591064	
1737987921748	0.025863647	
1737987921749	0.008621216	
1737987921750	-0.018920898	
1737987921751	-0.014724731	
1737987921752	-0.040283203	
1737987921753	-0.06362915	
1737987921754	-0.081710815	
1737987921755	-0.0541687	
1737987921756	0.024261475	
1737987921757	0.03326416	
1737987921758	0.0037384033	
1737987921759	-0.033340454	
1737987921760	-0.06011963	
1737987921761	0.0037384033	
1737987921762	0.09918213	
1737987921763	0.12062073	
1737987921764	0.07965088	
1737987921765	0.0390625	
1737987921766	0.028915405	
1737987921767	0.03074646	
1737987921768	0.055770874	
1737987921769	0.11528015	
1737987921770	0.12535095	
1737987921771	0.035705566	
1737987921772	-0.08522034	
1737987921773	-0.18180847	
1737987921774	-0.27519226	
1737987921775	-0.28640747	
1737987921776	-0.13778687	
1737987921777	-0.051345825	
1737987921778	-0.09857178	
1737987921779	-0.083847046	
1737987921780	0.009689331	
1737987921781	0.090789795	
1737987921782	0.12649536	
1737987921783	0.15892029	
1737987921784	0.12878418	
1737987921785	0.044021606	
1737987921786	0.094833374	
1737987921787	0.16235352	
1737987921788	0.0995636	
1737987921789	0.06011963	
1737987921790	0.08766174	
1737987921791	0.066986084	
1737987921792	0.026397705	
1737987921793	0.011749268	
1737987921794	-0.014343262	
1737987921795	-0.028457642	
1737987921796	-0.04951477	
1737987921797	-0.07888794	
1737987921798	-0.07385254	
1737987921799	-0.07392883	
1737987921800	-0.08003235	
1737987921801	-0.069503784	
1737987921802	-0.05027771	
1737987921803	-0.036087036	
1737987921804	-0.034866333	
1737987921805	-0.030441284	
1737987921806	-0.045166016	
1737987921807	-0.050811768	
1737987921808	-0.0077056885	
1737987921809	0.016860962	
1737987921810	0.012130737	
1737987921811	0.010986328	
1737987921812	0.004501343	
1737987921813	-0.0025939941	
1737987921814	0.02243042	
1737987921815	0.0692749	
1737987921816	0.067596436	
1737987921817	0.016937256	
1737987921818	-0.025405884	
1737987921819	-0.04196167	
1737987921820	-0.01914978	
1737987921821	0.0073242188	
1737987921822	0.012741089	
1737987921823	0.038223267	
1737987921824	0.050582886	
1737987921825	0.019989014	
1737987921826	-0.057907104	
1737987921827	-0.09307861	
1737987921828	0.0030517578	
1737987921829	0.09284973	
1737987921830	0.07507324	
1737987921831	0.0104522705	
1737987921832	0.034179688	
1737987921833	0.08041382	
1737987921834	0.011291504	
1737987921835	-0.014038086	
1737987921836	0.019989014	
1737987921837	0.0025939941	
1737987921838	-0.010910034	
1737987921839	-0.012054443	
1737987921840	-0.024719238	
1737987921841	-0.039978027	
1737987921842	-0.051193237	
1737987921843	-0.04295349	
1737987921844	-0.019073486	
1737987921845	0.0022888184	
1737987921846	0.017318726	
1737987921847	0.018615723	
1737987921848	-0.01838684	
1737987921849	-0.0680542	
1737987921850	-0.06072998	
1737987921851	-0.012817383	
1737987921852	0.009384155	
1737987921853	0.001449585	
1737987921854	-0.015106201	
1737987921855	-0.019073486	
1737987921856	0.008163452	
1737987921857	0.038146973	
1737987921858	0.013885498	
1737987921859	-0.035247803	
1737987921860	-0.01838684	
1737987921861	0.0365448	
1737987921862	0.05882263	
1737987921863	0.052642822	
1737987921864	0.031585693	
1737987921865	0.05142212	
1737987921866	0.1083374	
1737987921867	0.03753662	
1737987921868	-0.09170532	
1737987921869	-0.06996155	
1737987921870	-0.029907227	
1737987921871	-0.049591064	
1737987921872	-0.030822754	
1737987921873	-0.0016021729	
1737987921874	0.019760132	
1737987921875	0.03540039	
1737987921876	0.028381348	
1737987921877	0.02067566	
1737987921878	0.009536743	
1737987921879	-0.019683838	
1737987921880	-0.030593872	
1737987921881	-0.012588501	
1737987921882	-0.004043579	
1737987921883	-0.0090789795	
1737987921884	0.0032806396	
1737987921885	0.02029419	
1737987921886	0.008850098	
1737987921887	-0.0074768066	
1737987921888	-0.0012969971	
1737987921889	-0.006942749	
1737987921890	-0.02861023	
1737987921891	-0.024719238	
1737987921892	-0.0023651123	
1737987921893	0.01121521	
1737987921894	0.017166138	
1737987921895	0.024108887	
1737987921896	4.5776367E-4	
1737987921897	-0.036239624	
1737987921898	-0.018310547	
1737987921899	-3.8146973E-4	
1737987921900	-0.012512207	
1737987921901	-0.004043579	
1737987921902	0.01701355	
1737987921903	0.04081726	
1737987921904	0.038375854	
1737987921905	0.0016784668	
1737987921906	-0.00579834	
1737987921907	0.012435913	
1737987921908	-0.006942749	
1737987921909	-0.02998352	
1737987921910	-0.011444092	
1737987921911	0.026168823	
1737987921912	0.03829956	
1737987921913	-0.0036621094	
1737987921914	-0.03387451	
1737987921915	-0.030212402	
1737987921916	-0.0012207031	
1737987921917	0.06706238	
1737987921918	0.080337524	
1737987921919	0.012130737	
1737987921920	-0.06744385	
1737987921921	-0.11138916	
1737987921922	-0.09239197	
1737987921923	-0.045776367	
1737987921924	-0.027542114	
1737987921925	0.0073242188	
1737987921926	0.046463013	
1737987921927	-0.0025177002	
1737987921928	-0.010986328	
1737987921929	0.05760193	
1737987921930	0.082092285	
1737987921931	0.057907104	
1737987921932	3.0517578E-4	
1737987921933	4.5776367E-4	
1737987921934	0.031051636	
1737987921935	0.00579834	
1737987921936	-0.0064086914	
1737987921937	-0.010910034	
1737987921938	-0.0051879883	
1737987921939	0.012893677	
1737987921940	0.009231567	
1737987921941	0.010147095	
1737987921942	0.0048065186	
1737987921943	-6.1035156E-4	
1737987921944	0.0064849854	
1737987921945	0.0018310547	
1737987921946	-0.022201538	
1737987921947	-0.04989624	
1737987921948	0.0034332275	
1737987921949	0.086517334	
1737987921950	-0.008850098	
1737987921951	-0.18333435	
1737987921952	-0.12214661	
1737987921953	0.033721924	
1737987921954	0.030212402	
1737987921955	0.013961792	
1737987921956	0.012283325	
1737987921957	0.027008057	
1737987921958	0.08102417	
1737987921959	0.07209778	
1737987921960	0.0541687	
1737987921961	-0.011749268	
1737987921962	-0.1260376	
1737987921963	-0.15304565	
1737987921964	-0.08934021	
1737987921965	0.0059509277	
1737987921966	0.056533813	
1737987921967	0.05722046	
1737987921968	0.07095337	
1737987921969	0.0693512	
1737987921970	0.031204224	
1737987921971	0.019378662	
1737987921972	0.01953125	
1737987921973	0.007095337	
1737987921974	0.012130737	
1737987921975	0.0104522705	
1737987921976	-0.0035858154	
1737987921977	-0.008163452	
1737987921978	-0.0064086914	
1737987921979	-0.007247925	
1737987921980	-0.013809204	
1737987921981	-0.019226074	
1737987921982	-0.018615723	
1737987921983	-0.009307861	
1737987921984	-3.8146973E-4	
1737987921985	0.002746582	
1737987921986	-0.0024414062	
1737987921987	-0.0036621094	
1737987921988	-0.001449585	
1737987921989	-0.011291504	
1737987921990	-0.013198853	
1737987921991	-0.005569458	
1737987921992	-0.009002686	
1737987921993	-0.01411438	
1737987921994	-0.015487671	
1737987921995	-0.018844604	
1737987921996	9.1552734E-4	
1737987921997	0.029067993	
1737987921998	0.04020691	
1737987921999	0.026473999	
1737987922000	-0.02784729	
1737987922001	-0.035095215	
1737987922002	8.392334E-4	
1737987922003	-0.033416748	
1737987922004	-0.017089844	
1737987922005	0.038146973	
1737987922006	0.014801025	
1737987922007	0.030899048	
1737987922008	0.025634766	
1737987922009	-0.019226074	
1737987922010	-0.03929138	
1737987922011	-0.066223145	
1737987922012	0.0034332275	
1737987922013	0.045394897	
1737987922014	-0.04119873	
1737987922015	-0.015411377	
1737987922016	0.07400513	
1737987922017	0.11009216	
1737987922018	0.11016846	
1737987922019	0.001373291	
1737987922020	-0.033416748	
1737987922021	0.007095337	
1737987922022	-0.05050659	
1737987922023	-0.075531006	
1737987922024	-0.040130615	
1737987922025	0.0076293945	
1737987922026	0.052337646	
1737987922027	0.02670288	
1737987922028	-0.04714966	
1737987922029	-0.0566864	
1737987922030	-0.026168823	
1737987922031	-0.010681152	
1737987922032	0.02166748	
1737987922033	-2.2888184E-4	
1737987922034	-0.039138794	
1737987922035	-0.019683838	
1737987922036	0.0076293945	
1737987922037	0.02708435	
1737987922038	0.032730103	
1737987922039	0.025482178	
1737987922040	0.014343262	
1737987922041	0.001373291	
1737987922042	-0.009613037	
1737987922043	0.0075531006	
1737987922044	0.042037964	
1737987922045	0.03944397	
1737987922046	0.0032806396	
1737987922047	-0.025634766	
1737987922048	-0.036087036	
1737987922049	-0.0680542	
1737987922050	-0.09788513	
1737987922051	-0.049591064	
1737987922052	0.034561157	
1737987922053	0.079193115	
1737987922054	0.05996704	
1737987922055	0.0045776367	
1737987922056	-0.03929138	
1737987922057	-0.056228638	
1737987922058	-0.0050354004	
1737987922059	0.053253174	
1737987922060	0.039978027	
1737987922061	0.03425598	
1737987922062	0.030899048	
1737987922063	0.013809204	
1737987922064	0.026245117	
1737987922065	0.03501892	
1737987922066	0.014877319	
1737987922067	-0.014266968	
1737987922068	-0.014953613	
1737987922069	0.009002686	
1737987922070	-0.008850098	
1737987922071	-0.06462097	
1737987922072	-0.035476685	
1737987922073	0.025863647	
1737987922074	0.012207031	
1737987922075	0.016708374	
1737987922076	0.026779175	
1737987922077	-0.024108887	
1737987922078	-0.09864807	
1737987922079	-0.10696411	
1737987922080	-0.04524231	
1737987922081	-0.06401062	
1737987922082	-0.052642822	
1737987922083	0.07789612	
1737987922084	0.095214844	
1737987922085	0.047836304	
1737987922086	0.037002563	
1737987922087	0.016326904	
1737987922088	0.023651123	
1737987922089	0.022201538	
1737987922090	0.012512207	
1737987922091	0.0146484375	
1737987922092	0.0047302246	
1737987922093	0.004119873	
1737987922094	0.008392334	
1737987922095	0.0030517578	
1737987922096	-0.0077819824	
1737987922097	-0.009307861	
1737987922098	-0.00869751	
1737987922099	-0.010604858	
1737987922100	0.0035095215	
1737987922101	0.008163452	
1737987922102	0.008544922	
1737987922103	0.0063323975	
1737987922104	-0.03265381	
1737987922105	-0.06576538	
1737987922106	-0.01739502	
1737987922107	0.06340027	
1737987922108	0.048675537	
1737987922109	-0.00541687	
1737987922110	-0.034713745	
1737987922111	-0.050430298	
1737987922112	-0.0132751465	
1737987922113	0.020828247	
1737987922114	0.0021362305	
1737987922115	-0.026168823	
1737987922116	-0.034103394	
1737987922117	-0.023269653	
1737987922118	0.007171631	
1737987922119	0.02822876	
1737987922120	0.027389526	
1737987922121	0.019454956	
1737987922122	-0.0011444092	
1737987922123	-0.0118255615	
1737987922124	-0.005264282	
1737987922125	0.008468628	
1737987922126	0.02029419	
1737987922127	0.018997192	
1737987922128	0.018692017	
1737987922129	0.01586914	
1737987922130	0.0015258789	
1737987922131	-0.005645752	
1737987922132	-0.008010864	
1737987922133	-0.004272461	
1737987922134	0.007095337	
1737987922135	-0.0032043457	
1737987922136	-0.011367798	
1737987922137	-0.0032043457	
1737987922138	0.001449585	
1737987922139	0.0047302246	
1737987922140	-0.001373291	
1737987922141	-0.0061798096	
1737987922142	-0.0019836426	
1737987922143	-0.0019073486	
1737987922144	-3.0517578E-4	
1737987922145	0.002746582	
1737987922146	0.0066375732	
1737987922147	0.0076293945	
1737987922148	-0.0023651123	
1737987922149	-0.0060272217	
1737987922150	-0.0019073486	
1737987922151	-0.0038146973	
1737987922152	-0.007019043	
1737987922153	-0.0032806396	
1737987922154	-0.005722046	
1737987922155	-0.013504028	
1737987922156	-0.0047302246	
1737987922157	-0.0047302246	
1737987922158	-0.015792847	
1737987922159	0.004348755	
1737987922160	0.02670288	
1737987922161	0.013504028	
1737987922162	0.0019836426	
1737987922163	-0.017089844	
1737987922164	-0.031814575	
1737987922165	0.010681152	
1737987922166	0.024719238	
1737987922167	-9.1552734E-4	
1737987922168	-0.019683838	
1737987922169	-0.026855469	
1737987922170	0.013809204	
1737987922171	0.021896362	
1737987922172	0.0016021729	
1737987922173	0.01411438	
1737987922174	0.010223389	
1737987922175	0.0074005127	
1737987922176	0.0035858154	
1737987922177	0.0010681152	
1737987922178	0.01159668	
1737987922179	0.005493164	
1737987922180	0.0029754639	
1737987922181	-0.001449585	
1737987922182	-0.012054443	
1737987922183	-0.0060272217	
1737987922184	3.0517578E-4	
1737987922185	-0.0024414062	
1737987922186	9.918213E-4	
1737987922187	0.0074005127	
1737987922188	0.0060272217	
1737987922189	-0.0019073486	
1737987922190	-0.008239746	
1737987922191	-7.6293945E-5	
1737987922192	-0.0029754639	
1737987922193	-0.015182495	
1737987922194	-0.0118255615	
1737987922195	-0.010681152	
1737987922196	-0.0049591064	
1737987922197	0.0018310547	
1737987922198	-0.0023651123	
1737987922199	6.866455E-4	
1737987922200	0.0023651123	
1737987922201	7.6293945E-4	
1737987922202	0.005645752	
1737987922203	0.0032043457	
1737987922204	-0.0019073486	
1737987922205	0.0021362305	
1737987922206	0.008010864	
1737987922207	0.005874634	
1737987922208	-9.918213E-4	
1737987922209	-0.0018310547	
1737987922210	-0.0051879883	
1737987922211	-0.009841919	
1737987922212	0.008850098	
1737987922213	0.030441284	
1737987922214	0.026473999	
1737987922215	0.0118255615	
1737987922216	-0.0073242188	
1737987922217	-0.021896362	
1737987922218	-0.02708435	
1737987922219	-0.040893555	
1737987922220	-0.025405884	
1737987922221	0.012130737	
1737987922222	0.013122559	
1737987922223	0.009536743	
1737987922224	0.005493164	
1737987922225	-0.009841919	
1737987922226	0.00289917	
1737987922227	0.028762817	
1737987922228	0.05241394	
1737987922229	0.056381226	
1737987922230	-0.0016021729	
1737987922231	-0.06317139	
1737987922232	-0.07400513	
1737987922233	-0.044174194	
1737987922234	-0.0033569336	
1737987922235	0.008239746	
1737987922236	0.016174316	
1737987922237	0.020599365	
1737987922238	0.023117065	
1737987922239	0.029830933	
1737987922240	0.002746582	
1737987922241	-0.022201538	
1737987922242	-0.018005371	
1737987922243	0.0038909912	
1737987922244	0.022735596	
1737987922245	0.015792847	
1737987922246	0.016098022	
1737987922247	0.01411438	
1737987922248	0.012359619	
1737987922249	0.005722046	
1737987922250	-0.024108887	
1737987922251	-0.031204224	
1737987922252	-0.027770996	
1737987922253	-0.020141602	
1737987922254	-0.004119873	
1737987922255	-0.010986328	
1737987922256	-0.008468628	
1737987922257	0.029144287	
1737987922258	0.05126953	
1737987922259	0.027236938	
1737987922260	-0.0030517578	
1737987922261	-0.01411438	
1737987922262	-0.020370483	
1737987922263	-0.030441284	
1737987922264	-0.0073242188	
1737987922265	0.015029907	
1737987922266	-5.340576E-4	
1737987922267	-0.0025939941	
1737987922268	-0.01991272	
1737987922269	-0.03211975	
1737987922270	-0.0051116943	
1737987922271	0.009002686	
1737987922272	0.012283325	
1737987922273	0.018005371	
1737987922274	0.0132751465	
1737987922275	-0.004348755	
1737987922276	-0.0051879883	
1737987922277	0.005493164	
1737987922278	0.0063323975	
1737987922279	-0.0048065186	
1737987922280	-0.016937256	
1737987922281	0.017852783	
1737987922282	0.044631958	
1737987922283	0.022888184	
1737987922284	0.0064086914	
1737987922285	-0.013198853	
1737987922286	-0.020599365	
1737987922287	-0.010757446	
1737987922288	-0.0066375732	
1737987922289	0.0104522705	
1737987922290	0.016326904	
1737987922291	0.004425049	
1737987922292	-0.010681152	
1737987922293	-0.012969971	
1737987922294	-5.340576E-4	
1737987922295	0.0012969971	
1737987922296	0.004425049	
1737987922297	-0.00579834	
1737987922298	-0.020217896	
1737987922299	-0.0045776367	
1737987922300	0.00869751	
1737987922301	0.0051879883	
1737987922302	-4.5776367E-4	
1737987922303	-0.012512207	
1737987922304	-0.01625061	
1737987922305	-0.0132751465	
1737987922306	-0.012359619	
1737987922307	-0.0061035156	
1737987922308	8.392334E-4	
1737987922309	0.009307861	
1737987922310	0.014190674	
1737987922311	0.014343262	
1737987922312	0.016784668	
1737987922313	0.007019043	
1737987922314	-0.005722046	
1737987922315	0.0016021729	
1737987922316	0.0075531006	
1737987922317	0.0037384033	
1737987922318	0.0017547607	
1737987922319	0.0011444092	
1737987922320	6.1035156E-4	
1737987922321	0.0031280518	
1737987922322	0.0062561035	
1737987922323	-0.0034332275	
1737987922324	-0.00541687	
1737987922325	-0.010910034	
1737987922326	-0.021972656	
1737987922327	-0.0033569336	
1737987922328	0.007019043	
1737987922329	0.008773804	
1737987922330	0.011062622	
1737987922331	-0.00793457	
1737987922332	-0.0063323975	
1737987922333	0.013122559	
1737987922334	0.011367798	
1737987922335	0.0030517578	
1737987922336	-0.002822876	
1737987922337	-0.015182495	
1737987922338	-0.01586914	
1737987922339	-5.340576E-4	
1737987922340	0.0051116943	
1737987922341	-9.918213E-4	
1737987922342	-0.005493164	
1737987922343	-0.004501343	
1737987922344	-0.001373291	
1737987922345	0.001373291	
1737987922346	0.008239746	
1737987922347	0.007095337	
1737987922348	0.0022888184	
1737987922349	0.0035858154	
1737987922350	-5.340576E-4	
1737987922351	0.0024414062	
1737987922352	0.011138916	
1737987922353	0.012435913	
1737987922354	0.008926392	
1737987922355	6.866455E-4	
1737987922356	-0.004501343	
1737987922357	-0.016098022	
1737987922358	-0.03112793	
1737987922359	-0.026321411	
1737987922360	-0.012588501	
1737987922361	-0.0015258789	
1737987922362	0.009841919	
1737987922363	0.023345947	
1737987922364	0.025558472	
1737987922365	0.0010681152	
1737987922366	-0.012130737	
1737987922367	0.0032043457	
1737987922368	0.006713867	
1737987922369	0.001449585	
1737987922370	-0.0050354004	
1737987922371	-0.012588501	
1737987922372	-0.004501343	
1737987922373	0.010910034	
1737987922374	0.020217896	
1737987922375	0.017242432	
1737987922376	0.008850098	
1737987922377	0.0061035156	
1737987922378	-0.0030517578	
1737987922379	-0.017852783	
1737987922380	-0.015182495	
1737987922381	-0.0033569336	
1737987922382	-0.002822876	
1737987922383	-0.0033569336	
1737987922384	-0.0023651123	
1737987922385	-0.0036621094	
1737987922386	6.866455E-4	
1737987922387	-0.0030517578	
1737987922388	-0.009689331	
1737987922389	-0.007247925	
1737987922390	-0.011367798	
1737987922391	-0.009155273	
1737987922392	0.002670288	
1737987922393	0.018310547	
1737987922394	0.030059814	
1737987922395	7.6293945E-4	
1737987922396	-0.032730103	
1737987922397	-0.01373291	
1737987922398	0.006790161	
1737987922399	0.004501343	
1737987922400	-0.006790161	
1737987922401	-0.009002686	
1737987922402	0.037231445	
1737987922403	0.071258545	
1737987922404	0.045394897	
1737987922405	-0.0046539307	
1737987922406	-0.035858154	
1737987922407	-0.030059814	
1737987922408	-0.022506714	
1737987922409	-0.00831604	
1737987922410	0.0038909912	
1737987922411	-0.0016021729	
1737987922412	0.001373291	
1737987922413	0.007171631	
1737987922414	-0.0038146973	
1737987922415	-0.014038086	
1737987922416	0.009613037	
1737987922417	0.0036621094	
1737987922418	-0.025100708	
1737987922419	-0.015640259	
1737987922420	-0.03211975	
1737987922421	-0.037231445	
1737987922422	0.0012969971	
1737987922423	0.020523071	
1737987922424	0.036010742	
1737987922425	0.02609253	
1737987922426	0.0090789795	
1737987922427	0.009460449	
1737987922428	-0.013046265	
1737987922429	-0.020141602	
1737987922430	-0.016403198	
1737987922431	0.020980835	
1737987922432	0.060195923	
1737987922433	0.023040771	
1737987922434	0.008468628	
1737987922435	0.00831604	
1737987922436	-0.013961792	
1737987922437	-0.017318726	
1737987922438	-0.016555786	
1737987922439	-0.0090789795	
1737987922440	-0.0119018555	
1737987922441	-0.01083374	
1737987922442	-0.0066375732	
1737987922443	-0.007019043	
1737987922444	0.004119873	
1737987922445	-8.392334E-4	
1737987922446	-0.0060272217	
1737987922447	4.5776367E-4	
1737987922448	0.0038146973	
1737987922449	0.011978149	
1737987922450	0.014190674	
1737987922451	0.005722046	
1737987922452	-0.0046539307	
1737987922453	-0.0077819824	
1737987922454	-8.392334E-4	
1737987922455	0.0025939941	
1737987922456	-0.0063323975	
1737987922457	-0.0051879883	
1737987922458	-0.0038909912	
1737987922459	-0.010147095	
1737987922460	6.866455E-4	
1737987922461	0.004196167	
1737987922462	0.0059509277	
1737987922463	0.014572144	
1737987922464	0.009460449	
1737987922465	0.0015258789	
1737987922466	-0.00289917	
1737987922467	-0.004501343	
1737987922468	-0.0015258789	
1737987922469	9.1552734E-4	
1737987922470	0.0	
1737987922471	-0.0024414062	
1737987922472	-0.004501343	
1737987922473	-0.004119873	
1737987922474	-7.6293945E-5	
1737987922475	-0.0015258789	
1737987922476	-0.004501343	
1737987922477	-0.0024414062	
1737987922478	-9.918213E-4	
1737987922479	-0.0012969971	
1737987922480	-0.00289917	
1737987922481	-0.004196167	
1737987922482	-0.0012969971	
1737987922483	-5.340576E-4	
1737987922484	0.0020599365	
1737987922485	0.009613037	
1737987922486	0.011291504	
1737987922487	0.009307861	
1737987922488	0.0074768066	
1737987922489	0.0061035156	
1737987922490	-0.0035858154	
1737987922491	-0.006942749	
1737987922492	-0.0037384033	
1737987922493	-0.003967285	
1737987922494	-0.004272461	
1737987922495	-0.0051879883	
1737987922496	-0.00289917	
1737987922497	-7.6293945E-5	
1737987922498	-7.6293945E-5	
1737987922499	0.0030517578	
1737987922500	0.005340576	
1737987922501	-0.0017547607	
1737987922502	-0.0049591064	
1737987922503	1.5258789E-4	
1737987922504	-0.0011444092	
1737987922505	-6.1035156E-4	
1737987922506	0.0033569336	
1737987922507	0.0025177002	
1737987922508	-0.0019073486	
1737987922509	-0.00289917	
1737987922510	-0.007095337	
1737987922511	-0.0019836426	
1737987922512	0.0066375732	
1737987922513	-0.0025177002	
1737987922514	-0.008544922	
1737987922515	-0.007171631	
1737987922516	-0.00289917	
1737987922517	0.004043579	
1737987922518	0.0059509277	
1737987922519	0.0037384033	
1737987922520	0.0059509277	
1737987922521	0.004501343	
1737987922522	0.0034332275	
1737987922523	0.0063323975	
1737987922524	-0.0016784668	
1737987922525	-0.0059509277	
1737987922526	0.0035858154	
1737987922527	0.019302368	
1737987922528	0.03135681	
1737987922529	0.027770996	
1737987922530	0.010375977	
1737987922531	-0.00289917	
1737987922532	-0.016174316	
1737987922533	-0.027923584	
1737987922534	-0.020446777	
1737987922535	-0.0146484375	
1737987922536	-0.014190674	
1737987922537	-0.0062561035	
1737987922538	-9.1552734E-4	
1737987922539	0.004348755	
1737987922540	0.0046539307	
1737987922541	6.866455E-4	
1737987922542	-0.0025177002	
1737987922543	-0.010910034	
1737987922544	-0.013656616	
1737987922545	-0.0030517578	
1737987922546	0.006942749	
1737987922547	0.0021362305	
1737987922548	1.5258789E-4	
1737987922549	0.0060272217	
1737987922550	0.014724731	
1737987922551	0.037231445	
1737987922552	0.025100708	
1737987922553	-0.019836426	
1737987922554	-0.03883362	
1737987922555	-0.03440857	
1737987922556	-0.014419556	
1737987922557	-0.005569458	
1737987922558	0.0033569336	
1737987922559	0.026931763	
1737987922560	0.02494812	
1737987922561	0.020904541	
1737987922562	0.013046265	
1737987922563	-0.019607544	
1737987922564	-0.014953613	
1737987922565	0.007247925	
1737987922566	-0.011367798	
1737987922567	0.0061035156	
1737987922568	0.036697388	
1737987922569	0.008392334	
1737987922570	-0.01625061	
1737987922571	-0.02319336	
1737987922572	-0.015029907	
1737987922573	-0.009155273	
1737987922574	-0.011367798	
1737987922575	0.0012969971	
1737987922576	-0.0033569336	
1737987922577	-0.013885498	
1737987922578	-0.011520386	
1737987922579	0.0031280518	
1737987922580	0.016403198	
1737987922581	0.019683838	
1737987922582	0.036849976	
1737987922583	0.023803711	
1737987922584	-0.01083374	
1737987922585	-0.007171631	
1737987922586	-0.0025177002	
1737987922587	-0.0047302246	
1737987922588	-0.0032806396	
1737987922589	-0.012359619	
1737987922590	-0.014343262	
1737987922591	-0.0146484375	
1737987922592	-0.013580322	
1737987922593	0.0012207031	
1737987922594	0.019302368	
1737987922595	0.02204895	
1737987922596	0.00869751	
1737987922597	-0.01373291	
1737987922598	-0.029220581	
1737987922599	-0.0048065186	
1737987922600	0.037002563	
1737987922601	0.05683899	
1737987922602	0.04295349	
1737987922603	0.0032806396	
1737987922604	-0.02204895	
1737987922605	-0.030136108	
1737987922606	-0.03440857	
1737987922607	-0.018234253	
1737987922608	-0.004043579	
1737987922609	0.0022888184	
1737987922610	0.018844604	
1737987922611	7.6293945E-4	
1737987922612	-0.036392212	
1737987922613	-0.028533936	
1737987922614	-0.0032806396	
1737987922615	0.0017547607	
1737987922616	0.006790161	
1737987922617	0.0132751465	
1737987922618	3.8146973E-4	
1737987922619	-0.0030517578	
1737987922620	0.006790161	
1737987922621	0.0024414062	
1737987922622	8.392334E-4	
1737987922623	0.004119873	
1737987922624	0.0035858154	
1737987922625	-0.0061798096	
1737987922626	-0.007858276	
1737987922627	0.01335144	
1737987922628	0.014343262	
1737987922629	0.0032043457	
1737987922630	0.011138916	
1737987922631	0.012893677	
1737987922632	0.0037384033	
1737987922633	-3.0517578E-4	
1737987922634	-0.0011444092	
1737987922635	-0.004196167	
1737987922636	-0.0061798096	
1737987922637	2.2888184E-4	
1737987922638	0.0034332275	
1737987922639	-0.0050354004	
1737987922640	-0.010681152	
1737987922641	-0.014572144	
1737987922642	-0.01373291	
1737987922643	-0.0016784668	
1737987922644	0.011138916	
1737987922645	0.018157959	
1737987922646	0.010147095	
1737987922647	-9.1552734E-4	
1737987922648	-0.0038146973	
1737987922649	-0.0074005127	
1737987922650	-0.012512207	
1737987922651	-0.0118255615	
1737987922652	-0.0038146973	
1737987922653	-0.0017547607	
1737987922654	0.002746582	
1737987922655	0.022506714	
1737987922656	0.040130615	
1737987922657	0.02861023	
1737987922658	-0.025405884	
1737987922659	-0.07369995	
1737987922660	-0.046157837	
1737987922661	0.0066375732	
1737987922662	0.0051879883	
1737987922663	0.007019043	
1737987922664	0.023880005	
1737987922665	0.012207031	
1737987922666	0.014038086	
1737987922667	0.02494812	
1737987922668	0.034713745	
1737987922669	0.017471313	
1737987922670	-0.008850098	
1737987922671	0.008163452	
1737987922672	-0.009155273	
1737987922673	-0.038604736	
1737987922674	-0.021209717	
1737987922675	-0.018310547	
1737987922676	-0.018615723	
1737987922677	0.016937256	
1737987922678	0.01625061	
1737987922679	-0.020599365	
1737987922680	-0.015716553	
1737987922681	-0.0046539307	
1737987922682	-0.012817383	
1737987922683	-0.0022888184	
1737987922684	0.010147095	
1737987922685	0.01121521	
1737987922686	0.029754639	
1737987922687	0.030288696	
1737987922688	0.0011444092	
1737987922689	-0.018997192	
1737987922690	-0.014266968	
1737987922691	0.009613037	
1737987922692	0.009002686	
1737987922693	0.008163452	
1737987922694	0.02243042	
1737987922695	0.015335083	
1737987922696	0.013427734	
1737987922697	0.0119018555	
1737987922698	-0.00541687	
1737987922699	-0.017852783	
1737987922700	-0.026779175	
1737987922701	-0.03265381	
1737987922702	-0.028381348	
1737987922703	-0.015716553	
1737987922704	0.003967285	
1737987922705	0.0076293945	
1737987922706	-0.0010681152	
1737987922707	-0.013198853	
1737987922708	-0.018692017	
1737987922709	0.015258789	
1737987922710	0.018539429	
1737987922711	3.0517578E-4	
1737987922712	0.015411377	
1737987922713	0.0037384033	
1737987922714	-0.0074005127	
1737987922715	0.0012969971	
1737987922716	0.0032043457	
1737987922717	0.0036621094	
1737987922718	-1.5258789E-4	
1737987922719	0.015258789	
1737987922720	0.026397705	
1737987922721	0.023345947	
1737987922722	0.010528564	
1737987922723	-0.025634766	
1737987922724	-0.027008057	
1737987922725	-0.004119873	
1737987922726	-0.009460449	
1737987922727	-0.0016021729	
1737987922728	0.018234253	
1737987922729	0.026931763	
1737987922730	0.028457642	
1737987922731	-0.015335083	
1737987922732	-0.056762695	
1737987922733	-0.03845215	
1737987922734	-0.009002686	
1737987922735	-0.0066375732	
1737987922736	-0.01663208	
1737987922737	0.0035858154	
1737987922738	0.041275024	
1737987922739	0.060272217	
1737987922740	0.051651	
1737987922741	0.020065308	
1737987922742	-0.01335144	
1737987922743	-0.054244995	
1737987922744	-0.056228638	
1737987922745	-0.02029419	
1737987922746	-0.020599365	
1737987922747	-0.013580322	
1737987922748	0.0030517578	
1737987922749	0.001449585	
1737987922750	0.017089844	
1737987922751	0.027694702	
1737987922752	0.023727417	
1737987922753	0.0077819824	
1737987922754	-0.022964478	
1737987922755	-0.026168823	
1737987922756	0.005340576	
1737987922757	0.012207031	
1737987922758	-0.00289917	
1737987922759	0.015945435	
1737987922760	0.035705566	
1737987922761	0.028152466	
1737987922762	0.011978149	
1737987922763	-0.0037384033	
1737987922764	-3.0517578E-4	
1737987922765	-0.005722046	
1737987922766	-0.044708252	
1737987922767	-0.07026672	
1737987922768	-0.031204224	
1737987922769	0.03944397	
1737987922770	0.061950684	
1737987922771	0.06736755	
1737987922772	0.079193115	
1737987922773	0.004272461	
1737987922774	-0.07385254	
1737987922775	-0.026931763	
1737987922776	0.010147095	
1737987922777	-0.035095215	
1737987922778	-0.0793457	
1737987922779	-0.07347107	
1737987922780	-0.0019836426	
1737987922781	0.07095337	
1737987922782	0.07911682	
1737987922783	0.02746582	
1737987922784	-0.023040771	
1737987922785	-0.026626587	
1737987922786	-0.027618408	
1737987922787	-0.035629272	
1737987922788	-0.0049591064	
1737987922789	-0.017929077	
1737987922790	-0.11932373	
1737987922791	-0.13130188	
1737987922792	0.005569458	
1737987922793	0.112457275	
1737987922794	0.07537842	
1737987922795	0.050125122	
1737987922796	0.11489868	
1737987922797	0.10826111	
1737987922798	0.044555664	
1737987922799	0.032958984	
1737987922800	0.032196045	
1737987922801	0.03189087	
1737987922802	0.024414062	
1737987922803	-0.03829956	
1737987922804	-0.09239197	
1737987922805	-0.11230469	
1737987922806	-0.10910034	
1737987922807	-0.012588501	
1737987922808	0.053329468	
1737987922809	0.011138916	
1737987922810	-0.018692017	
1737987922811	-0.055007935	
1737987922812	-0.053634644	
1737987922813	-0.007019043	
1737987922814	-0.018997192	
1737987922815	-0.028381348	
1737987922816	-6.1035156E-4	
1737987922817	0.024108887	
1737987922818	0.037231445	
1737987922819	0.034942627	
1737987922820	-7.6293945E-5	
1737987922821	-0.0047302246	
1737987922822	0.061645508	
1737987922823	0.066604614	
1737987922824	0.024108887	
1737987922825	0.015640259	
1737987922826	0.012283325	
1737987922827	0.015792847	
1737987922828	0.011062622	
1737987922829	0.011444092	
1737987922830	0.009384155	
1737987922831	-0.0029754639	
1737987922832	0.027618408	
1737987922833	0.025100708	
1737987922834	-0.086364746	
1737987922835	-0.18089294	
1737987922836	-0.13725281	
1737987922837	6.1035156E-4	
1737987922838	0.08529663	
1737987922839	0.0579834	
1737987922840	0.04119873	
1737987922841	0.04508972	
1737987922842	0.072021484	
1737987922843	0.06607056	
1737987922844	-0.05218506	
1737987922845	-0.013961792	
1737987922846	0.07232666	
1737987922847	0.030059814	
1737987922848	0.009231567	
1737987922849	-0.0680542	
1737987922850	-0.06851196	
1737987922851	-0.042114258	
1737987922852	-0.091781616	
1737987922853	-0.013961792	
1737987922854	-0.018463135	
1737987922855	-0.08476257	
1737987922856	-0.12512207	
1737987922857	-0.24787903	
1737987922858	-0.20469666	
1737987922859	0.004348755	
1737987922860	0.15762329	
1737987922861	0.21072388	
1737987922862	0.24368286	
1737987922863	0.20690918	
1737987922864	0.06713867	
1737987922865	0.07736206	
1737987922866	0.14556885	
1737987922867	0.003967285	
1737987922868	-0.11665344	
1737987922869	-0.076293945	
1737987922870	-0.0049591064	
1737987922871	0.050201416	
1737987922872	0.07217407	
1737987922873	0.100479126	
1737987922874	0.10261536	
1737987922875	0.03288269	
1737987922876	-0.051574707	
1737987922877	-0.10871887	
1737987922878	-0.11856079	
1737987922879	-0.1348877	
1737987922880	-0.13336182	
1737987922881	-0.014572144	
1737987922882	0.104599	
1737987922883	0.08331299	
1737987922884	-0.04371643	
1737987922885	-0.14144897	
1737987922886	-0.18486023	
1737987922887	-0.18798828	
1737987922888	-0.17219543	
1737987922889	-0.15846252	
1737987922890	-9.918213E-4	
1737987922891	0.15785217	
1737987922892	0.14335632	
1737987922893	0.13778687	
1737987922894	0.14656067	
1737987922895	0.124816895	
1737987922896	0.100479126	
1737987922897	0.059661865	
1737987922898	0.0605011	
1737987922899	0.06515503	
1737987922900	0.100860596	
1737987922901	0.17585754	
1737987922902	0.21446228	
1737987922903	0.15167236	
1737987922904	-0.06500244	
1737987922905	-0.13366699	
1737987922906	-0.0059509277	
1737987922907	-0.04310608	
1737987922908	-0.1612091	
1737987922909	-0.25016785	
1737987922910	-0.43296814	
1737987922911	-0.513916	
1737987922912	-0.3882599	
1737987922913	-0.0957489	
1737987922914	0.31913757	
1737987922915	0.3639984	
1737987922916	0.1260376	
1737987922917	0.013885498	
1737987922918	-0.18226624	
1737987922919	-0.35362244	
1737987922920	-0.20210266	
1737987922921	0.049743652	
1737987922922	0.15716553	
1737987922923	0.21873474	
1737987922924	0.22659302	
1737987922925	0.21629333	
1737987922926	0.316391	
1737987922927	0.38246155	
1737987922928	0.29052734	
1737987922929	0.10635376	
1737987922930	0.06744385	
1737987922931	0.24528503	
1737987922932	0.28518677	
1737987922933	0.0541687	
1737987922934	-0.21766663	
1737987922935	-0.3252411	
1737987922936	-0.30281067	
1737987922937	-0.22903442	
1737987922938	-0.04699707	
1737987922939	-0.0104522705	
1737987922940	-0.19126892	
1737987922941	-0.20217896	
1737987922942	-0.13931274	
1737987922943	-0.09552002	
1737987922944	0.023422241	
1737987922945	-0.003967285	
1737987922946	-0.13656616	
1737987922947	-0.11238098	
1737987922948	-0.0060272217	
1737987922949	0.021057129	
1737987922950	0.024490356	
1737987922951	-0.00831604	
1737987922952	-0.027694702	
1737987922953	0.06942749	
1737987922954	0.15396118	
1737987922955	0.21598816	
1737987922956	0.24658203	
1737987922957	0.116119385	
1737987922958	-0.021362305	
1737987922959	-0.039596558	
1737987922960	-0.13328552	
1737987922961	-0.22773743	
1737987922962	-0.21125793	
1737987922963	-0.18043518	
1737987922964	-0.14755249	
1737987922965	-0.24467468	
1737987922966	-0.36109924	
1737987922967	-0.16265869	
1737987922968	0.1927948	
1737987922969	0.31692505	
1737987922970	0.26649475	
1737987922971	0.31593323	
1737987922972	0.3578949	
1737987922973	0.34736633	
1737987922974	0.3656006	
1737987922975	0.21881104	
1737987922976	0.009994507	
1737987922977	-0.049743652	
1737987922978	0.0017547607	
1737987922979	0.0667572	
1737987922980	0.016860962	
1737987922981	-0.034332275	
1737987922982	-0.08270264	
1737987922983	-0.117263794	
1737987922984	-0.09841919	
1737987922985	-0.20050049	
1737987922986	-0.2809906	
1737987922987	-0.17608643	
1737987922988	-0.06462097	
1737987922989	-0.012283325	
1737987922990	-0.011367798	
1737987922991	-0.08491516	
1737987922992	-0.108947754	
1737987922993	-0.07545471	
1737987922994	-0.080337524	
1737987922995	-0.04257202	
1737987922996	-0.023651123	
1737987922997	-0.08010864	
1737987922998	-0.0592041	
1737987922999	0.050048828	
1737987923000	0.15907288	
1737987923001	0.16395569	
1737987923002	0.05821228	
1737987923003	-0.028381348	
1737987923004	-0.034713745	
1737987923005	-0.030136108	
1737987923006	-0.024871826	
1737987923007	0.07736206	
1737987923008	0.16487122	
1737987923009	0.119400024	
1737987923010	0.027999878	
1737987923011	-0.014724731	
1737987923012	0.008544922	
1737987923013	0.05470276	
1737987923014	0.061645508	
1737987923015	-0.03845215	
1737987923016	-0.13801575	
1737987923017	-0.07110596	
1737987923018	0.1184082	
1737987923019	0.1940918	
1737987923020	0.015258789	
1737987923021	-0.1586914	
1737987923022	-0.12420654	
1737987923023	-0.052719116	
1737987923024	-0.01701355	
1737987923025	0.083847046	
1737987923026	0.11238098	
1737987923027	-0.020446777	
1737987923028	-0.08308411	
1737987923029	-0.050735474	
1737987923030	0.004348755	
1737987923031	0.07759094	
1737987923032	0.06729126	
1737987923033	0.029067993	
1737987923034	0.03135681	
1737987923035	-0.018081665	
1737987923036	-0.17288208	
1737987923037	-0.18203735	
1737987923038	0.06713867	
1737987923039	0.15983582	
1737987923040	0.04020691	
1737987923041	-0.040359497	
1737987923042	-0.08918762	
1737987923043	-0.10444641	
1737987923044	-0.09414673	
1737987923045	-0.022201538	
1737987923046	0.1133728	
1737987923047	0.119628906	
1737987923048	0.05569458	
1737987923049	0.049743652	
1737987923050	-0.058898926	
1737987923051	-0.10810852	
1737987923052	0.004119873	
1737987923053	0.019073486	
1737987923054	-0.05355835	
1737987923055	-0.058898926	
1737987923056	0.09246826	
1737987923057	0.24345398	
1737987923058	0.19927979	
1737987923059	0.13412476	
1737987923060	0.09780884	
1737987923061	-0.01663208	
1737987923062	-0.09246826	
1737987923063	-0.07949829	
1737987923064	-0.017547607	
1737987923065	-0.02319336	
1737987923066	-0.13267517	
1737987923067	-0.20050049	
1737987923068	-0.18333435	
1737987923069	-0.17189026	
1737987923070	-0.2709198	
1737987923071	-0.27557373	
1737987923072	-0.028533936	
1737987923073	0.20347595	
1737987923074	0.25917053	
1737987923075	0.06530762	
1737987923076	-0.18058777	
1737987923077	-0.10871887	
1737987923078	0.24169922	
1737987923079	0.4511261	
1737987923080	0.27503967	
1737987923081	0.083999634	
1737987923082	-0.07949829	
1737987923083	-0.19706726	
1737987923084	-0.010223389	
1737987923085	0.08995056	
1737987923086	0.09841919	
1737987923087	0.19607544	
1737987923088	0.098724365	
1737987923089	0.003967285	
1737987923090	-0.037994385	
1737987923091	-0.16525269	
1737987923092	-0.23704529	
1737987923093	-0.13175964	
1737987923094	0.054016113	
1737987923095	0.047912598	
1737987923096	-0.066223145	
1737987923097	-0.06790161	
1737987923098	-0.030899048	
1737987923099	0.008926392	
1737987923100	0.1007843	
1737987923101	0.097961426	
1737987923102	-0.032043457	
1737987923103	-0.090789795	
1737987923104	-0.08644104	
1737987923105	-0.02067566	
1737987923106	0.03807068	
1737987923107	-0.047531128	
1737987923108	-0.050430298	
1737987923109	0.010910034	
1737987923110	-0.017242432	
1737987923111	-0.063705444	
1737987923112	-0.11352539	
1737987923113	-0.09475708	
1737987923114	-0.075912476	
1737987923115	-0.0617218	
1737987923116	0.019454956	
1737987923117	0.085754395	
1737987923118	0.15525818	
1737987923119	0.18745422	
1737987923120	0.15403748	
1737987923121	0.08522034	
1737987923122	0.010986328	
1737987923123	0.03555298	
1737987923124	0.12435913	
1737987923125	0.1296997	
1737987923126	-0.054626465	
1737987923127	-0.21995544	
1737987923128	-0.15541077	
1737987923129	0.05088806	
1737987923130	0.2342987	
1737987923131	0.041732788	
1737987923132	-0.15533447	
1737987923133	-0.0061798096	
1737987923134	-0.03479004	
1737987923135	-0.12138367	
1737987923136	-0.053482056	
1737987923137	-0.019989014	
1737987923138	0.015640259	
1737987923139	0.03692627	
1737987923140	0.0060272217	
1737987923141	-0.039978027	
1737987923142	0.0062561035	
1737987923143	0.031967163	
1737987923144	-0.040740967	
1737987923145	-0.023803711	
1737987923146	0.021743774	
1737987923147	-0.001373291	
1737987923148	-0.039367676	
1737987923149	-0.039215088	
1737987923150	-0.032730103	
1737987923151	-0.055770874	
1737987923152	0.0340271	
1737987923153	0.15441895	
1737987923154	0.12763977	
1737987923155	0.05180359	
1737987923156	-0.0047302246	
1737987923157	-0.08590698	
1737987923158	-0.08522034	
1737987923159	0.02319336	
1737987923160	0.052871704	
1737987923161	0.080718994	
1737987923162	0.15190125	
1737987923163	0.08453369	
1737987923164	-0.0819397	
1737987923165	-0.25428772	
1737987923166	-0.34797668	
1737987923167	-0.18310547	
1737987923168	0.0036621094	
1737987923169	0.048828125	
1737987923170	0.1802063	
1737987923171	0.07713318	
1737987923172	-0.16159058	
1737987923173	-0.044174194	
1737987923174	0.1209259	
1737987923175	0.11390686	
1737987923176	0.0016021729	
1737987923177	-0.018081665	
1737987923178	0.11695862	
1737987923179	0.18630981	
1737987923180	0.21514893	
1737987923181	0.11390686	
1737987923182	-0.050811768	
1737987923183	-0.015487671	
1737987923184	0.04585266	
1737987923185	0.013961792	
1737987923186	-0.05455017	
1737987923187	-0.1587677	
1737987923188	-0.12893677	
1737987923189	3.8146973E-4	
1737987923190	0.028839111	
1737987923191	-0.018157959	
1737987923192	-0.15090942	
1737987923193	-0.23704529	
1737987923194	-0.045547485	
1737987923195	0.17944336	
1737987923196	0.09063721	
1737987923197	-0.1083374	
1737987923198	-0.04135132	
1737987923199	0.0743866	
1737987923200	0.028686523	
1737987923201	0.008468628	
1737987923202	-0.038223267	
1737987923203	-0.0881958	
1737987923204	0.005874634	
1737987923205	0.12542725	
1737987923206	0.093688965	
1737987923207	-0.04425049	
1737987923208	-0.039978027	
1737987923209	0.043563843	
1737987923210	0.012664795	
1737987923211	-0.05645752	
1737987923212	-0.09803772	
1737987923213	-0.049057007	
1737987923214	0.074920654	
1737987923215	0.12786865	
1737987923216	0.056228638	
1737987923217	-0.025482178	
1737987923218	0.016555786	
1737987923219	0.048980713	
1737987923220	0.011291504	
1737987923221	0.00541687	
1737987923222	-0.0019073486	
1737987923223	-0.013504028	
1737987923224	-0.023956299	
1737987923225	-0.029144287	
1737987923226	-0.022201538	
1737987923227	-0.018920898	
1737987923228	-0.01411438	
1737987923229	-0.012741089	
1737987923230	-0.007858276	
1737987923231	-0.0011444092	
1737987923232	0.009841919	
1737987923233	0.023727417	
1737987923234	-0.035858154	
1737987923235	-0.13587952	
1737987923236	-0.1210022	
1737987923237	-0.0019073486	
1737987923238	0.10650635	
1737987923239	0.24078369	
1737987923240	0.22743225	
1737987923241	-0.017318726	
1737987923242	-0.094451904	
1737987923243	-0.08743286	
1737987923244	-0.07331848	
1737987923245	0.012588501	
1737987923246	-0.025939941	
1737987923247	-0.013656616	
1737987923248	0.0049591064	
1737987923249	-0.021972656	
1737987923250	0.004196167	
1737987923251	-0.009765625	
1737987923252	-0.0047302246	
1737987923253	0.0031280518	
1737987923254	0.001373291	
1737987923255	0.017471313	
1737987923256	0.0066375732	
1737987923257	0.0118255615	
1737987923258	0.01411438	
1737987923259	0.0038909912	
1737987923260	0.00793457	
1737987923261	0.0062561035	
1737987923262	-0.007019043	
1737987923263	-0.020980835	
1737987923264	-0.01449585	
1737987923265	-0.0010681152	
1737987923266	0.004196167	
1737987923267	0.002746582	
1737987923268	-0.0011444092	
1737987923269	0.0019073486	
1737987923270	0.0077056885	
1737987923271	0.022201538	
1737987923272	8.392334E-4	
1737987923273	-0.02708435	
1737987923274	-0.013809204	
1737987923275	-0.024261475	
1737987923276	-0.03807068	
1737987923277	-0.029830933	
1737987923278	-0.0047302246	
1737987923279	0.025405884	
1737987923280	0.0146484375	
1737987923281	0.013580322	
1737987923282	0.017547607	
1737987923283	0.006866455	
1737987923284	0.012664795	
1737987923285	0.008010864	
1737987923286	0.00541687	
1737987923287	0.0011444092	
1737987923288	-0.0059509277	
1737987923289	-0.004501343	
1737987923290	-0.0061035156	
1737987923291	-0.0023651123	
1737987923292	0.0021362305	
1737987923293	-0.001373291	
1737987923294	7.6293945E-4	
1737987923295	0.0016021729	
1737987923296	0.002670288	
1737987923297	0.0022125244	
1737987923298	0.0020599365	
1737987923299	0.009841919	
1737987923300	0.012435913	
1737987923301	0.0064849854	
1737987923302	0.0010681152	
1737987923303	-0.009536743	
1737987923304	-0.03227234	
1737987923305	-0.02784729	
1737987923306	0.016937256	
1737987923307	0.05493164	
1737987923308	0.044326782	
1737987923309	0.0048828125	
1737987923310	-0.009155273	
1737987923311	0.005493164	
1737987923312	-7.6293945E-4	
1737987923313	-0.010910034	
1737987923314	-0.013656616	
1737987923315	-0.01449585	
1737987923316	-0.005264282	
1737987923317	-0.009689331	
1737987923318	-0.012512207	
1737987923319	-0.011978149	
1737987923320	-0.004272461	
1737987923321	-8.392334E-4	
1737987923322	-0.005264282	
1737987923323	-0.009536743	
1737987923324	-0.021972656	
1737987923325	-0.021820068	
1737987923326	-0.01991272	
1737987923327	-0.018463135	
1737987923328	-0.009536743	
1737987923329	-0.010910034	
1737987923330	-0.015487671	
1737987923331	-0.0049591064	
1737987923332	0.006713867	
1737987923333	0.009384155	
1737987923334	0.010147095	
1737987923335	0.014877319	
1737987923336	0.013504028	
1737987923337	0.019607544	
1737987923338	0.022659302	
1737987923339	0.018920898	
1737987923340	0.0289917	
1737987923341	0.027389526	
1737987923342	0.020980835	
1737987923343	0.009841919	
1737987923344	0.012207031	
1737987923345	0.016860962	
1737987923346	0.0066375732	
1737987923347	-0.0065612793	
1737987923348	-0.0065612793	
1737987923349	0.001449585	
1737987923350	-0.001449585	
1737987923351	0.002822876	
1737987923352	0.0033569336	
1737987923353	-0.0025177002	
1737987923354	-0.0048828125	
1737987923355	-0.0051116943	
1737987923356	-0.009307861	
1737987923357	-0.015487671	
1737987923358	-0.014724731	
1737987923359	-0.013656616	
1737987923360	-0.011978149	
1737987923361	-0.011978149	
1737987923362	-0.0065612793	
1737987923363	-0.0048065186	
1737987923364	-0.0064849854	
1737987923365	-7.6293945E-5	
1737987923366	-0.0033569336	
1737987923367	-0.010147095	
1737987923368	-0.011520386	
1737987923369	-0.011367798	
1737987923370	-0.0046539307	
1737987923371	-7.6293945E-4	
1737987923372	-0.002746582	
1737987923373	0.0075531006	
1737987923374	0.009765625	
1737987923375	0.0062561035	
1737987923376	0.006866455	
1737987923377	0.007247925	
1737987923378	0.0051879883	
1737987923379	-0.0017547607	
1737987923380	-9.918213E-4	
1737987923381	0.0019836426	
1737987923382	0.004272461	
1737987923383	-0.0016021729	
1737987923384	-0.00541687	
1737987923385	-3.8146973E-4	
1737987923386	4.5776367E-4	
1737987923387	-0.0010681152	
1737987923388	-0.0061798096	
1737987923389	-0.004043579	
1737987923390	-0.0064086914	
1737987923391	-0.013427734	
1737987923392	-0.005874634	
1737987923393	-0.007019043	
1737987923394	-0.0064849854	
1737987923395	0.0033569336	
1737987923396	0.0048065186	
1737987923397	0.008392334	
1737987923398	0.009155273	
1737987923399	0.009689331	
1737987923400	0.010757446	
1737987923401	0.012054443	
1737987923402	0.018539429	
1737987923403	0.012207031	
1737987923404	0.0037384033	
1737987923405	6.1035156E-4	
1737987923406	0.0031280518	
1737987923407	0.0061798096	
1737987923408	-0.0032806396	
1737987923409	-0.0011444092	
1737987923410	-0.0016784668	
1737987923411	-0.017929077	
1737987923412	-0.013046265	
1737987923413	-2.2888184E-4	
1737987923414	1.5258789E-4	
1737987923415	-0.013504028	
1737987923416	-0.01914978	
1737987923417	0.01159668	
1737987923418	0.03036499	
1737987923419	-0.0065612793	
1737987923420	-0.024871826	
1737987923421	-0.0064086914	
1737987923422	-0.033340454	
1737987923423	-0.048599243	
1737987923424	0.010604858	
1737987923425	0.06713867	
1737987923426	0.06736755	
1737987923427	0.017852783	
1737987923428	-0.0033569336	
1737987923429	0.0118255615	
1737987923430	0.004425049	
1737987923431	-0.009689331	
1737987923432	-0.03929138	
1737987923433	-0.046310425	
1737987923434	-0.016555786	
1737987923435	-0.003967285	
1737987923436	0.008468628	
1737987923437	0.018615723	
1737987923438	0.042419434	
1737987923439	0.024337769	
1737987923440	-0.08659363	
1737987923441	-0.11375427	
1737987923442	-0.016860962	
1737987923443	0.053329468	
1737987923444	0.05973816	
1737987923445	0.17883301	
1737987923446	0.15312195	
1737987923447	-0.08621216	
1737987923448	-0.008010864	
1737987923449	0.041503906	
1737987923450	-0.06774902	
1737987923451	-0.035095215	
1737987923452	-0.050048828	
1737987923453	-0.047912598	
1737987923454	-0.03555298	
1737987923455	-0.022506714	
1737987923456	0.03868103	
1737987923457	0.051116943	
1737987923458	0.0032806396	
1737987923459	-0.05279541	
1737987923460	-0.0315094	
1737987923461	-0.01876831	
1737987923462	-0.035324097	
1737987923463	-0.021209717	
1737987923464	-0.021514893	
1737987923465	-0.023651123	
1737987923466	-0.019378662	
1737987923467	2.2888184E-4	
1737987923468	0.013580322	
1737987923469	-0.011749268	
1737987923470	-0.013656616	
1737987923471	0.0046539307	
1737987923472	0.009918213	
1737987923473	0.018997192	
1737987923474	0.020523071	
1737987923475	0.018997192	
1737987923476	0.028152466	
1737987923477	0.023117065	
1737987923478	0.0146484375	
1737987923479	0.023117065	
1737987923480	0.024337769	
1737987923481	0.012893677	
1737987923482	5.340576E-4	
1737987923483	-0.005569458	
1737987923484	-8.392334E-4	
1737987923485	0.004501343	
1737987923486	0.010299683	
1737987923487	0.011367798	
1737987923488	0.005340576	
1737987923489	0.0064849854	
1737987923490	0.007247925	
1737987923491	-0.005645752	
1737987923492	-0.019989014	
1737987923493	0.0076293945	
1737987923494	0.03730774	
1737987923495	0.013427734	
1737987923496	-0.031051636	
1737987923497	-0.025024414	
1737987923498	0.011138916	
1737987923499	0.013885498	
1737987923500	0.0025177002	
1737987923501	-0.004119873	
1737987923502	-0.0077056885	
1737987923503	-0.015258789	
1737987923504	-0.015716553	
1737987923505	-0.0016021729	
1737987923506	0.0010681152	
1737987923507	-0.011291504	
1737987923508	-0.015640259	
1737987923509	-0.00869751	
1737987923510	-0.020217896	
1737987923511	-0.04043579	
1737987923512	-0.037612915	
1737987923513	-0.022506714	
1737987923514	0.007019043	
1737987923515	0.041656494	
1737987923516	0.046310425	
1737987923517	0.021820068	
1737987923518	0.0045776367	
1737987923519	0.005340576	
1737987923520	2.2888184E-4	
1737987923521	-0.0033569336	
1737987923522	-0.0064086914	
1737987923523	-0.015563965	
1737987923524	-0.011672974	
1737987923525	-0.009460449	
1737987923526	-0.0019073486	
1737987923527	0.0038146973	
1737987923528	-0.004196167	
1737987923529	2.2888184E-4	
1737987923530	3.0517578E-4	
1737987923531	-0.0049591064	
1737987923532	6.866455E-4	
1737987923533	0.0018310547	
1737987923534	0.0074768066	
1737987923535	0.013427734	
1737987923536	0.0064086914	
1737987923537	0.0050354004	
1737987923538	0.010681152	
1737987923539	0.011672974	
1737987923540	0.006713867	
1737987923541	0.006713867	
1737987923542	0.009994507	
1737987923543	0.0049591064	
1737987923544	-0.0063323975	
1737987923545	-4.5776367E-4	
1737987923546	0.005645752	
1737987923547	-0.030288696	
1737987923548	-0.083465576	
1737987923549	-0.04966736	
1737987923550	0.07156372	
1737987923551	0.13023376	
1737987923552	0.061035156	
1737987923553	-0.034866333	
1737987923554	-0.010681152	
1737987923555	0.019073486	
1737987923556	-0.02571106	
1737987923557	-0.030059814	
1737987923558	-0.017929077	
1737987923559	0.0051879883	
1737987923560	0.0491333	
1737987923561	0.04547119	
1737987923562	-0.021514893	
1737987923563	-0.0957489	
1737987923564	-0.098724365	
1737987923565	-0.062179565	
1737987923566	-0.07072449	
1737987923567	-0.08041382	
1737987923568	-2.2888184E-4	
1737987923569	0.092315674	
1737987923570	0.056915283	
1737987923571	0.0065612793	
1737987923572	0.049209595	
1737987923573	0.05783081	
1737987923574	0.033340454	
1737987923575	0.026321411	
1737987923576	0.006713867	
1737987923577	0.008392334	
1737987923578	0.015106201	
1737987923579	0.01701355	
1737987923580	0.014419556	
1737987923581	-0.007171631	
1737987923582	-0.016403198	
1737987923583	-0.014877319	
1737987923584	-0.0064849854	
1737987923585	-0.004348755	
1737987923586	-0.014190674	
1737987923587	-0.014038086	
1737987923588	-0.009384155	
1737987923589	-4.5776367E-4	
1737987923590	0.0011444092	
1737987923591	-7.6293945E-4	
1737987923592	0.0064086914	
1737987923593	0.003967285	
1737987923594	-9.1552734E-4	
1737987923595	-0.002822876	
1737987923596	-0.0036621094	
1737987923597	-0.0060272217	
1737987923598	-0.01121521	
1737987923599	-0.0066375732	
1737987923600	-0.0033569336	
1737987923601	0.008850098	
1737987923602	0.020141602	
1737987923603	0.007171631	
1737987923604	0.008239746	
1737987923605	0.009689331	
1737987923606	-0.0047302246	
1737987923607	-7.6293945E-4	
1737987923608	0.0019836426	
1737987923609	-0.003967285	
1737987923610	-0.0032806396	
1737987923611	-0.013046265	
1737987923612	-0.021972656	
1737987923613	-0.013809204	
1737987923614	-0.0075531006	
1737987923615	-0.012054443	
1737987923616	-0.0118255615	
1737987923617	-0.0077056885	
1737987923618	-0.009155273	
1737987923619	-0.0011444092	
1737987923620	0.0074768066	
1737987923621	0.007019043	
1737987923622	0.004196167	
1737987923623	7.6293945E-5	
1737987923624	-0.002670288	
1737987923625	-0.0020599365	
1737987923626	9.1552734E-4	
1737987923627	0.0012207031	
1737987923628	0.0059509277	
1737987923629	0.010299683	
1737987923630	0.009765625	
1737987923631	0.014038086	
1737987923632	0.015258789	
1737987923633	0.011672974	
1737987923634	0.011978149	
1737987923635	0.0061798096	
1737987923636	-0.0015258789	
1737987923637	6.1035156E-4	
1737987923638	9.918213E-4	
1737987923639	-0.0025177002	
1737987923640	0.0021362305	
1737987923641	0.001449585	
1737987923642	-0.0062561035	
1737987923643	-0.0066375732	
1737987923644	-0.0030517578	
1737987923645	-0.0025177002	
1737987923646	-0.0025939941	
1737987923647	-6.1035156E-4	
1737987923648	-0.008163452	
1737987923649	-0.011672974	
1737987923650	-0.0064086914	
1737987923651	-0.002670288	
1737987923652	0.0060272217	
1737987923653	0.0065612793	
1737987923654	0.0038146973	
1737987923655	0.0061798096	
1737987923656	0.005493164	
1737987923657	0.0048065186	
1737987923658	0.0031280518	
1737987923659	0.0048065186	
1737987923660	0.0046539307	
1737987923661	-0.0019836426	
1737987923662	-0.005722046	
1737987923663	-0.0022888184	
1737987923664	0.0074005127	
1737987923665	0.005722046	
1737987923666	0.0025177002	
1737987923667	0.0046539307	
1737987923668	0.0018310547	
1737987923669	0.0037384033	
1737987923670	-0.005340576	
1737987923671	-0.022277832	
1737987923672	-0.019073486	
1737987923673	-0.009841919	
1737987923674	-0.0018310547	
1737987923675	0.0036621094	
1737987923676	-0.013809204	
1737987923677	-0.014801025	
1737987923678	-0.0060272217	
1737987923679	-0.013198853	
1737987923680	-0.0016021729	
1737987923681	-0.006866455	
1737987923682	-0.010681152	
1737987923683	0.0038146973	
1737987923684	9.918213E-4	
1737987923685	0.0034332275	
1737987923686	0.0045776367	
1737987923687	0.0073242188	
1737987923688	0.008087158	
1737987923689	0.0015258789	
1737987923690	-0.0024414062	
1737987923691	-0.0077819824	
1737987923692	-0.002670288	
1737987923693	0.0049591064	
1737987923694	0.0025177002	
1737987923695	0.00831604	
1737987923696	0.018692017	
1737987923697	0.020523071	
1737987923698	0.019302368	
1737987923699	0.018157959	
1737987923700	0.017623901	
1737987923701	0.0118255615	
1737987923702	1.5258789E-4	
1737987923703	6.866455E-4	
1737987923704	0.005264282	
1737987923705	5.340576E-4	
1737987923706	6.1035156E-4	
1737987923707	9.918213E-4	
1737987923708	0.002822876	
1737987923709	0.002822876	
1737987923710	2.2888184E-4	
1737987923711	0.0051116943	
1737987923712	0.008621216	
1737987923713	0.013122559	
1737987923714	-6.1035156E-4	
1737987923715	-0.041503906	
1737987923716	-0.051116943	
1737987923717	-0.005874634	
1737987923718	0.031280518	
1737987923719	-0.016937256	
1737987923720	-0.09147644	
1737987923721	-0.055847168	
1737987923722	0.0051116943	
1737987923723	0.023422241	
1737987923724	0.039215088	
1737987923725	0.016937256	
1737987923726	-0.0036621094	
1737987923727	-0.0035858154	
1737987923728	3.8146973E-4	
1737987923729	0.037994385	
1737987923730	0.061569214	
1737987923731	0.03211975	
1737987923732	-0.024642944	
1737987923733	-0.06958008	
1737987923734	-0.0680542	
1737987923735	-0.042114258	
1737987923736	-0.032806396	
1737987923737	-0.011520386	
1737987923738	0.024261475	
1737987923739	0.03074646	
1737987923740	0.035095215	
1737987923741	0.015563965	
1737987923742	0.004196167	
1737987923743	0.049438477	
1737987923744	0.069885254	
1737987923745	0.06866455	
1737987923746	0.04737854	
1737987923747	-0.025482178	
1737987923748	-0.07072449	
1737987923749	-0.052261353	
1737987923750	-0.019302368	
1737987923751	-4.5776367E-4	
1737987923752	-9.1552734E-4	
1737987923753	0.00869751	
1737987923754	0.02418518	
1737987923755	0.017852783	
1737987923756	0.004348755	
1737987923757	-0.0035858154	
1737987923758	-0.013809204	
1737987923759	-0.011978149	
1737987923760	-0.005722046	
1737987923761	-0.013046265	
1737987923762	-0.013504028	
1737987923763	-0.01335144	
1737987923764	-0.020065308	
1737987923765	-0.024871826	
1737987923766	-0.029678345	
1737987923767	-0.026168823	
1737987923768	-0.021057129	
1737987923769	-0.013580322	
1737987923770	0.006790161	
1737987923771	0.017242432	
1737987923772	0.01373291	
1737987923773	0.012207031	
1737987923774	0.019302368	
1737987923775	0.0289917	
1737987923776	0.02746582	
1737987923777	0.025863647	
1737987923778	0.026550293	
1737987923779	0.030212402	
1737987923780	0.032196045	
1737987923781	0.023422241	
1737987923782	0.019683838	
1737987923783	0.012512207	
1737987923784	0.004119873	
1737987923785	-0.010375977	
1737987923786	-0.024490356	
1737987923787	-0.025253296	
1737987923788	-0.039749146	
1737987923789	-0.05088806	
1737987923790	-0.05104065	
1737987923791	-0.05744934	
1737987923792	-0.054016113	
1737987923793	-0.0440979	
1737987923794	-0.030136108	
1737987923795	-0.020599365	
1737987923796	-0.03227234	
1737987923797	-0.058670044	
1737987923798	-0.03807068	
1737987923799	0.061416626	
1737987923800	0.11558533	
1737987923801	0.048675537	
1737987923802	0.011672974	
1737987923803	0.08514404	
1737987923804	0.15403748	
1737987923805	0.17623901	
1737987923806	0.18486023	
1737987923807	0.12908936	
1737987923808	0.089645386	
1737987923809	0.13381958	
1737987923810	0.16357422	
1737987923811	0.14137268	
1737987923812	0.08735657	
1737987923813	0.010223389	
1737987923814	-0.05317688	
1737987923815	-0.107803345	
1737987923816	-0.1990509	
1737987923817	-0.2682495	
1737987923818	-0.2998352	
1737987923819	-0.34042358	
1737987923820	-0.31166077	
1737987923821	-0.30677795	
1737987923822	-0.3050232	
1737987923823	-0.23025513	
1737987923824	-0.1725769	
1737987923825	-0.14434814	
1737987923826	-0.0945282	
1737987923827	-0.038604736	
1737987923828	0.037231445	
1737987923829	0.107040405	
1737987923830	0.15022278	
1737987923831	0.25489807	
1737987923832	0.31272888	
1737987923833	0.27191162	
1737987923834	0.26054382	
1737987923835	0.25657654	
1737987923836	0.16769409	
1737987923837	0.05088806	
1737987923838	-0.078430176	
1737987923839	-0.13015747	
1737987923840	-0.089035034	
1737987923841	-0.12130737	
1737987923842	-0.116119385	
1737987923843	-0.05317688	
1737987923844	0.009384155	
1737987923845	0.16685486	
1737987923846	0.33546448	
1737987923847	0.42503357	
1737987923848	0.43403625	
1737987923849	0.4056549	
1737987923850	0.39138794	
1737987923851	0.32783508	
1737987923852	0.26107788	
1737987923853	0.16189575	
1737987923854	0.029907227	
1737987923855	-0.077056885	
1737987923856	-0.18638611	
1737987923857	-0.2610016	
1737987923858	-0.31608582	
1737987923859	-0.37826538	
1737987923860	-0.41931152	
1737987923861	-0.44387817	
1737987923862	-0.44891357	
1737987923863	-0.48820496	
1737987923864	-0.5742645	
1737987923865	-0.6485748	
1737987923866	-0.6474304	
1737987923867	-0.48805237	
1737987923868	-0.28457642	
1737987923869	-0.12542725	
1737987923870	-0.044631958	
1737987923871	0.035629272	
1737987923872	0.18257141	
1737987923873	0.22750854	
1737987923874	0.33317566	
1737987923875	0.5619812	
1737987923876	0.6739807	
1737987923877	0.6719208	
1737987923878	0.5768585	
1737987923879	0.55526733	
1737987923880	0.5421448	
1737987923881	0.39772034	
1737987923882	0.35964966	
1737987923883	0.3630829	
1737987923884	0.23841858	
1737987923885	0.08583069	
1737987923886	-0.06187439	
1737987923887	-0.13259888	
1737987923888	-0.11077881	
1737987923889	-0.08148193	
1737987923890	-0.13282776	
1737987923891	-0.29327393	
1737987923892	-0.36109924	
1737987923893	-0.32966614	
1737987923894	-0.35110474	
1737987923895	-0.46791077	
1737987923896	-0.5973816	
1737987923897	-0.520401	
1737987923898	-0.32226562	
1737987923899	-0.16349792	
1737987923900	-0.07469177	
1737987923901	0.0077056885	
1737987923902	0.15441895	
1737987923903	0.14190674	
1737987923904	0.024108887	
1737987923905	0.084609985	
1737987923906	0.11802673	
1737987923907	0.12939453	
1737987923908	0.1764679	
1737987923909	-0.010528564	
1737987923910	-0.10971069	
1737987923911	0.10467529	
1737987923912	0.2558899	
1737987923913	0.2644348	
1737987923914	0.21987915	
1737987923915	0.13763428	
1737987923916	0.076293945	
1737987923917	0.06767273	
1737987923918	0.022659302	
1737987923919	-0.08224487	
1737987923920	-0.14228821	
1737987923921	-0.10360718	
1737987923922	0.023117065	
1737987923923	-0.010299683	
1737987923924	-0.09742737	
1737987923925	-0.005569458	
1737987923926	-0.006790161	
1737987923927	-0.053863525	
1737987923928	-0.015945435	
1737987923929	-0.0032806396	
1737987923930	0.008468628	
1737987923931	0.018997192	
1737987923932	0.06881714	
1737987923933	0.1171875	
1737987923934	0.11779785	
1737987923935	0.10116577	
1737987923936	0.051956177	
1737987923937	0.064468384	
1737987923938	0.05645752	
1737987923939	-0.055389404	
1737987923940	-0.09010315	
1737987923941	0.034332275	
1737987923942	0.13824463	
1737987923943	0.08338928	
1737987923944	-0.008621216	
1737987923945	-0.016403198	
1737987923946	-0.028839111	
1737987923947	-0.099487305	
1737987923948	-0.102005005	
1737987923949	-0.102767944	
1737987923950	-0.1474762	
1737987923951	-0.15647888	
1737987923952	-0.15029907	
1737987923953	-0.14083862	
1737987923954	-0.12176514	
1737987923955	-0.05935669	
1737987923956	0.006866455	
1737987923957	-0.03135681	
1737987923958	-0.06088257	
1737987923959	0.03074646	
1737987923960	0.09033203	
1737987923961	0.08796692	
1737987923962	0.103530884	
1737987923963	0.09590149	
1737987923964	0.0843811	
1737987923965	0.06851196	
1737987923966	0.046920776	
1737987923967	0.05203247	
1737987923968	0.03479004	
1737987923969	0.026473999	
1737987923970	0.04814148	
1737987923971	1.5258789E-4	
1737987923972	-0.09597778	
1737987923973	-0.14579773	
1737987923974	-0.1399231	
1737987923975	-0.11306763	
1737987923976	-0.0415802	
1737987923977	-0.004196167	
1737987923978	-0.010070801	
1737987923979	0.036010742	
1737987923980	0.048980713	
1737987923981	0.023117065	
1737987923982	0.046844482	
1737987923983	0.07522583	
1737987923984	0.122299194	
1737987923985	0.18669128	
1737987923986	0.15235901	
1737987923987	0.068359375	
1737987923988	0.03753662	
1737987923989	0.018692017	
1737987923990	-0.0016784668	
1737987923991	0.005874634	
1737987923992	0.051879883	
1737987923993	0.097351074	
1737987923994	0.07148743	
1737987923995	0.014724731	
1737987923996	-0.06576538	
1737987923997	-0.1461029	
1737987923998	-0.111694336	
1737987923999	-0.04524231	
1737987924000	0.008010864	
1737987924001	-0.05722046	
1737987924002	-0.31166077	
1737987924003	-0.38612366	
1737987924004	-0.17173767	
1737987924005	0.09979248	
1737987924006	0.19386292	
1737987924007	0.018310547	
1737987924008	-0.14228821	
1737987924009	-0.08087158	
1737987924010	0.03753662	
1737987924011	0.048446655	
1737987924012	0.023040771	
1737987924013	0.03425598	
1737987924014	0.057678223	
1737987924015	0.07461548	
1737987924016	0.06942749	
1737987924017	0.07034302	
1737987924018	0.093688965	
1737987924019	0.11489868	
1737987924020	0.10444641	
1737987924021	0.036239624	
1737987924022	0.0019073486	
1737987924023	-0.0065612793	
1737987924024	-0.038909912	
1737987924025	0.026473999	
1737987924026	0.06668091	
1737987924027	0.043411255	
1737987924028	0.073776245	
1737987924029	0.04310608	
1737987924030	-0.03616333	
1737987924031	-0.14701843	
1737987924032	-0.19851685	
1737987924033	-0.10696411	
1737987924034	-0.10482788	
1737987924035	-0.08735657	
1737987924036	0.018005371	
1737987924037	0.037231445	
1737987924038	0.050201416	
1737987924039	0.040740967	
1737987924040	0.0132751465	
1737987924041	0.009765625	
1737987924042	-0.024642944	
1737987924043	-0.040283203	
1737987924044	-0.014266968	
1737987924045	0.009613037	
1737987924046	-0.0064849854	
1737987924047	9.918213E-4	
1737987924048	0.032348633	
1737987924049	0.017547607	
1737987924050	0.020980835	
1737987924051	0.03715515	
1737987924052	0.04852295	
1737987924053	0.07232666	
1737987924054	0.076675415	
1737987924055	0.04585266	
1737987924056	-0.015792847	
1737987924057	-0.032958984	
1737987924058	-0.042495728	
1737987924059	-0.052261353	
1737987924060	0.004043579	
1737987924061	0.041885376	
1737987924062	0.07041931	
1737987924063	0.05279541	
1737987924064	-0.045776367	
1737987924065	-0.16433716	
1737987924066	-0.21110535	
1737987924067	-0.07102966	
1737987924068	0.06149292	
1737987924069	0.08743286	
1737987924070	0.06980896	
1737987924071	0.03791809	
1737987924072	0.025634766	
1737987924073	-0.03387451	
1737987924074	-0.01663208	
1737987924075	0.03791809	
1737987924076	0.0022888184	
1737987924077	0.014038086	
1737987924078	0.02029419	
1737987924079	-0.009613037	
1737987924080	0.0074005127	
1737987924081	0.007858276	
1737987924082	-0.013198853	
1737987924083	-0.0119018555	
1737987924084	0.013580322	
1737987924085	0.040130615	
1737987924086	0.042877197	
1737987924087	0.043182373	
1737987924088	-0.018310547	
1737987924089	-0.18112183	
1737987924090	-0.21347046	
1737987924091	-0.014724731	
1737987924092	0.105895996	
1737987924093	0.05340576	
1737987924094	0.051345825	
1737987924095	0.0340271	
1737987924096	-0.019226074	
1737987924097	0.013504028	
1737987924098	0.028762817	
1737987924099	0.026855469	
1737987924100	0.029449463	
1737987924101	0.016708374	
1737987924102	0.017089844	
1737987924103	-0.004043579	
1737987924104	-0.010910034	
1737987924105	0.0020599365	
1737987924106	-0.021896362	
1737987924107	-0.037384033	
1737987924108	-0.018692017	
1737987924109	-0.022354126	
1737987924110	-0.029907227	
1737987924111	-0.01876831	
1737987924112	3.0517578E-4	
1737987924113	0.0051879883	
1737987924114	-0.036010742	
1737987924115	-0.007171631	
1737987924116	0.053100586	
1737987924117	0.03189087	
1737987924118	0.031280518	
1737987924119	0.038986206	
1737987924120	0.014801025	
1737987924121	-0.0019836426	
1737987924122	0.019302368	
1737987924123	0.07003784	
1737987924124	0.064315796	
1737987924125	0.021896362	
1737987924126	-0.045776367	
1737987924127	-0.15266418	
1737987924128	-0.19866943	
1737987924129	-0.14160156	
1737987924130	-0.030975342	
1737987924131	0.017471313	
1737987924132	-9.918213E-4	
1737987924133	-0.0015258789	
1737987924134	0.051651	
1737987924135	0.15777588	
1737987924136	0.19584656	
1737987924137	0.113983154	
1737987924138	0.06820679	
1737987924139	0.033569336	
