# OpenSignals Text File Format
# {"00:80:E1:26:A1:B0":{"sensor":["EMG"],"device name":"00:80:E1:26:A1:B0","column":["timestamp","EMG"],"sync interval":2,"time":"12:10:19","comments":"","keywords":"","device connection":"BLE00:80:E1:26:A1:B0","channels":[0],"date":"2025-02-28","mode":0,"digital IO":[],"firmware version":259,"device":"musclebanplux","position":0,"sampling rate":1000,"label":["EMG"],"resolution":[16],"special":[{}],"sleeve color":["UNKNOWN"]}}
# EndOfHeader
1740741019984	0.0132751465	
1740741019985	0.026397705	
1740741019986	0.021591187	
1740741019987	0.02998352	
1740741019988	0.01701355	
1740741019989	-0.01586914	
1740741019990	-0.050125122	
1740741019991	-0.056381226	
1740741019992	-0.02998352	
1740741019993	0.0061035156	
1740741019994	0.063705444	
1740741019995	0.111846924	
1740741019996	0.11428833	
1740741019997	0.080947876	
1740741019998	0.026397705	
1740741019999	-0.024795532	
1740741020000	-0.044021606	
1740741020001	-0.0390625	
1740741020002	-0.037612915	
1740741020003	-0.03517151	
1740741020004	-0.03250122	
1740741020005	-0.03387451	
1740741020006	-0.02746582	
1740741020007	-0.022735596	
1740741020008	-0.02281189	
1740741020009	-0.017166138	
1740741020010	-0.012207031	
1740741020011	-0.015182495	
1740741020012	-0.012435913	
1740741020013	-0.002822876	
1740741020014	0.0017547607	
1740741020015	0.007095337	
1740741020016	0.010681152	
1740741020017	0.007858276	
1740741020018	0.0074768066	
1740741020019	0.0017547607	
1740741020020	-0.005493164	
1740741020021	0.0061798096	
1740741020022	0.018539429	
1740741020023	0.018310547	
1740741020024	0.021209717	
1740741020025	0.02281189	
1740741020026	0.018157959	
1740741020027	0.013656616	
1740741020028	0.011978149	
1740741020029	0.0077819824	
1740741020030	0.0016021729	
1740741020031	-0.0019073486	
1740741020032	-0.0051879883	
1740741020033	9.1552734E-4	
1740741020034	0.0045776367	
1740741020035	-0.002746582	
1740741020036	-0.004043579	
1740741020037	-0.002670288	
1740741020038	-0.0036621094	
1740741020039	-0.00869751	
1740741020040	-0.010299683	
1740741020041	-0.0045776367	
1740741020042	-0.005264282	
1740741020043	-0.0077819824	
1740741020044	-0.009689331	
1740741020045	-0.008392334	
1740741020046	-0.0034332275	
1740741020047	-0.0038909912	
1740741020048	0.0019073486	
1740741020049	0.005493164	
1740741020050	-6.866455E-4	
1740741020051	-0.0034332275	
1740741020052	-0.009384155	
1740741020053	-0.010147095	
1740741020054	-0.0018310547	
1740741020055	0.0012207031	
1740741020056	5.340576E-4	
1740741020057	-6.1035156E-4	
1740741020058	-0.0050354004	
1740741020059	-0.010604858	
1740741020060	-0.0065612793	
1740741020061	0.00793457	
1740741020062	0.017471313	
1740741020063	0.010757446	
1740741020064	0.005493164	
1740741020065	0.012130737	
1740741020066	0.010604858	
1740741020067	0.005264282	
1740741020068	0.0064086914	
1740741020069	9.1552734E-4	
1740741020070	-0.0023651123	
1740741020071	0.002746582	
1740741020072	-0.0019073486	
1740741020073	-0.0059509277	
1740741020074	-0.004043579	
1740741020075	-0.0016784668	
1740741020076	0.0016784668	
1740741020077	-0.0024414062	
1740741020078	-0.0032806396	
1740741020079	0.0074768066	
1740741020080	0.008621216	
1740741020081	-0.0018310547	
1740741020082	-0.0060272217	
1740741020083	-0.00793457	
1740741020084	-0.004425049	
1740741020085	0.0022125244	
1740741020086	-3.0517578E-4	
1740741020087	0.0011444092	
1740741020088	9.918213E-4	
1740741020089	-0.0061798096	
1740741020090	-0.0049591064	
1740741020091	0.0	
1740741020092	0.004119873	
1740741020093	0.002746582	
1740741020094	-0.006866455	
1740741020095	-0.0034332275	
1740741020096	0.007247925	
1740741020097	0.005645752	
1740741020098	0.0035095215	
1740741020099	-0.010757446	
1740741020100	-0.02128601	
1740741020101	-0.0062561035	
1740741020102	0.0025177002	
1740741020103	0.016784668	
1740741020104	0.026931763	
1740741020105	0.0065612793	
1740741020106	-0.026245117	
1740741020107	-0.033340454	
1740741020108	-0.0047302246	
1740741020109	-6.866455E-4	
1740741020110	-0.0064086914	
1740741020111	-0.0034332275	
1740741020112	-0.0016784668	
1740741020113	0.018920898	
1740741020114	0.02319336	
1740741020115	0.026168823	
1740741020116	0.025024414	
1740741020117	0.002822876	
1740741020118	0.016860962	
1740741020119	0.030899048	
1740741020120	-0.0066375732	
1740741020121	-0.036849976	
1740741020122	-0.027389526	
1740741020123	-0.02670288	
1740741020124	-0.012969971	
1740741020125	0.021362305	
1740741020126	-3.8146973E-4	
1740741020127	-0.027542114	
1740741020128	-0.027694702	
1740741020129	-0.048599243	
1740741020130	-0.06492615	
1740741020131	-0.026473999	
1740741020132	0.034179688	
1740741020133	0.04837036	
1740741020134	0.055541992	
1740741020135	0.053329468	
1740741020136	0.024032593	
1740741020137	0.02281189	
1740741020138	0.027236938	
1740741020139	0.033493042	
1740741020140	0.032196045	
1740741020141	0.011367798	
1740741020142	-2.2888184E-4	
1740741020143	-0.010681152	
1740741020144	-0.022888184	
1740741020145	-0.033187866	
1740741020146	-0.03036499	
1740741020147	-0.016555786	
1740741020148	-0.0048065186	
1740741020149	-0.008468628	
1740741020150	-0.01876831	
1740741020151	-0.009536743	
1740741020152	-0.016174316	
1740741020153	-0.035629272	
1740741020154	-0.03593445	
1740741020155	-0.020446777	
1740741020156	0.009841919	
1740741020157	0.026245117	
1740741020158	0.020065308	
1740741020159	0.014038086	
1740741020160	0.013427734	
1740741020161	0.01586914	
1740741020162	0.007019043	
1740741020163	-0.009994507	
1740741020164	-0.0074005127	
1740741020165	-0.009536743	
1740741020166	-0.018005371	
1740741020167	0.015335083	
1740741020168	0.035858154	
1740741020169	0.015945435	
1740741020170	0.0037384033	
1740741020171	-0.012130737	
1740741020172	-0.018005371	
1740741020173	-0.0059509277	
1740741020174	-0.0018310547	
1740741020175	0.001449585	
1740741020176	0.007019043	
1740741020177	0.004119873	
1740741020178	6.866455E-4	
1740741020179	0.0048828125	
1740741020180	8.392334E-4	
1740741020181	-0.0022888184	
1740741020182	0.002822876	
1740741020183	0.004043579	
1740741020184	0.00541687	
1740741020185	0.0019836426	
1740741020186	-4.5776367E-4	
1740741020187	0.0012969971	
1740741020188	7.6293945E-4	
1740741020189	0.0019836426	
1740741020190	0.005264282	
1740741020191	0.004348755	
1740741020192	-0.002746582	
1740741020193	-0.00541687	
1740741020194	-0.003967285	
1740741020195	-0.004501343	
1740741020196	-0.0019836426	
1740741020197	-0.0025939941	
1740741020198	-0.003967285	
1740741020199	1.5258789E-4	
1740741020200	7.6293945E-5	
1740741020201	-0.0020599365	
1740741020202	-0.0018310547	
1740741020203	-0.0048065186	
1740741020204	-0.006942749	
1740741020205	-0.004272461	
1740741020206	-0.005645752	
1740741020207	-0.0049591064	
1740741020208	0.0018310547	
1740741020209	0.0032043457	
1740741020210	0.0012207031	
1740741020211	0.0018310547	
1740741020212	0.0035095215	
1740741020213	0.002822876	
1740741020214	0.006866455	
1740741020215	0.006942749	
1740741020216	-6.866455E-4	
1740741020217	9.1552734E-4	
1740741020218	0.0012207031	
1740741020219	0.0016021729	
1740741020220	0.0051116943	
1740741020221	-0.002746582	
1740741020222	-0.004425049	
1740741020223	5.340576E-4	
1740741020224	-0.0059509277	
1740741020225	-0.0016784668	
1740741020226	0.0036621094	
1740741020227	0.001449585	
1740741020228	0.0036621094	
1740741020229	-0.005264282	
1740741020230	-0.010681152	
1740741020231	-0.0035858154	
1740741020232	-0.0011444092	
1740741020233	0.0012969971	
1740741020234	0.009460449	
1740741020235	0.004348755	
1740741020236	5.340576E-4	
1740741020237	0.0048065186	
1740741020238	-0.0064086914	
1740741020239	-0.0048828125	
1740741020240	-0.001373291	
1740741020241	-0.012741089	
1740741020242	0.001449585	
1740741020243	0.012664795	
1740741020244	0.006866455	
1740741020245	0.011367798	
1740741020246	0.0033569336	
1740741020247	-0.011520386	
1740741020248	-0.017700195	
1740741020249	-0.010604858	
1740741020250	-0.008239746	
1740741020251	-0.037002563	
1740741020252	-0.039215088	
1740741020253	0.010757446	
1740741020254	0.03593445	
1740741020255	0.041275024	
1740741020256	0.06843567	
1740741020257	0.04219055	
1740741020258	-0.014953613	
1740741020259	-0.015029907	
1740741020260	-0.0032043457	
1740741020261	0.0022125244	
1740741020262	0.003967285	
1740741020263	-0.0066375732	
1740741020264	-0.009689331	
1740741020265	-0.011291504	
1740741020266	-0.020828247	
1740741020267	-0.033340454	
1740741020268	-0.034713745	
1740741020269	-0.012207031	
1740741020270	0.007858276	
1740741020271	0.0024414062	
1740741020272	-2.2888184E-4	
1740741020273	-7.6293945E-4	
1740741020274	9.1552734E-4	
1740741020275	0.024414062	
1740741020276	0.028762817	
1740741020277	0.0017547607	
1740741020278	-0.0061035156	
1740741020279	0.033493042	
1740741020280	0.054244995	
1740741020281	0.016937256	
1740741020282	-0.009765625	
1740741020283	-0.0032806396	
1740741020284	0.0048828125	
1740741020285	-0.021820068	
1740741020286	-0.06767273	
1740741020287	-0.08895874	
1740741020288	-0.045394897	
1740741020289	0.032196045	
1740741020290	0.030288696	
1740741020291	0.0061798096	
1740741020292	0.016937256	
1740741020293	0.0019836426	
1740741020294	-0.0104522705	
1740741020295	-0.0016784668	
1740741020296	0.013504028	
1740741020297	0.023803711	
1740741020298	0.012741089	
1740741020299	0.0064086914	
1740741020300	0.0034332275	
1740741020301	-0.009689331	
1740741020302	0.0075531006	
1740741020303	0.020065308	
1740741020304	0.0019836426	
1740741020305	0.014419556	
1740741020306	0.015411377	
1740741020307	-0.011062622	
1740741020308	-0.01411438	
1740741020309	-0.016555786	
1740741020310	-0.016479492	
1740741020311	-0.007019043	
1740741020312	-0.005722046	
1740741020313	0.0020599365	
1740741020314	0.015945435	
1740741020315	0.010681152	
1740741020316	-0.00831604	
1740741020317	-0.00541687	
1740741020318	0.012512207	
1740741020319	0.0090789795	
1740741020320	9.1552734E-4	
1740741020321	-0.0076293945	
1740741020322	-0.015335083	
1740741020323	-0.0061035156	
1740741020324	-0.006942749	
1740741020325	-0.009689331	
1740741020326	-0.0047302246	
1740741020327	-0.002670288	
1740741020328	0.007095337	
1740741020329	0.004043579	
1740741020330	-0.0073242188	
1740741020331	0.001449585	
1740741020332	0.009536743	
1740741020333	0.0073242188	
1740741020334	0.0064849854	
1740741020335	0.0038146973	
1740741020336	-0.0011444092	
1740741020337	-0.0074768066	
1740741020338	1.5258789E-4	
1740741020339	0.012588501	
1740741020340	0.0047302246	
1740741020341	-0.0033569336	
1740741020342	-0.0029754639	
1740741020343	0.0029754639	
1740741020344	0.008392334	
1740741020345	-9.1552734E-4	
1740741020346	-0.005874634	
1740741020347	-0.0034332275	
1740741020348	-0.00541687	
1740741020349	-0.004196167	
1740741020350	0.0	
1740741020351	6.1035156E-4	
1740741020352	-0.0012969971	
1740741020353	5.340576E-4	
1740741020354	-9.1552734E-4	
1740741020355	-0.0051879883	
1740741020356	0.0	
1740741020357	8.392334E-4	
1740741020358	-9.918213E-4	
1740741020359	0.004196167	
1740741020360	0.0030517578	
1740741020361	-0.0017547607	
1740741020362	-0.0050354004	
1740741020363	-0.0049591064	
1740741020364	0.0021362305	
1740741020365	0.004196167	
1740741020366	-0.002746582	
1740741020367	-0.0065612793	
1740741020368	-0.008392334	
1740741020369	-0.00541687	
1740741020370	0.009155273	
1740741020371	0.019760132	
1740741020372	0.016021729	
1740741020373	0.0033569336	
1740741020374	-0.009307861	
1740741020375	-0.012435913	
1740741020376	-0.0035095215	
1740741020377	0.0051879883	
1740741020378	0.0077819824	
1740741020379	0.0104522705	
1740741020380	0.004425049	
1740741020381	7.6293945E-4	
1740741020382	0.007858276	
1740741020383	0.005264282	
1740741020384	-0.004196167	
1740741020385	-0.022659302	
1740741020386	-0.034561157	
1740741020387	-0.006790161	
1740741020388	0.0023651123	
1740741020389	-0.020980835	
1740741020390	-0.018157959	
1740741020391	-0.015106201	
1740741020392	-0.007095337	
1740741020393	0.013809204	
1740741020394	0.014801025	
1740741020395	0.009155273	
1740741020396	-0.0077819824	
1740741020397	-0.020370483	
1740741020398	-0.004272461	
1740741020399	0.03189087	
1740741020400	0.08872986	
1740741020401	0.12519836	
1740741020402	0.081329346	
1740741020403	-0.0132751465	
1740741020404	-0.04386902	
1740741020405	-0.028839111	
1740741020406	-0.034561157	
1740741020407	-0.019378662	
1740741020408	-0.00579834	
1740741020409	-0.026016235	
1740741020410	-0.07270813	
1740741020411	-0.104522705	
1740741020412	-0.050201416	
1740741020413	-0.0060272217	
1740741020414	-0.018539429	
1740741020415	0.022583008	
1740741020416	0.036087036	
1740741020417	0.01876831	
1740741020418	0.045928955	
1740741020419	0.029830933	
1740741020420	0.009613037	
1740741020421	0.012588501	
1740741020422	0.006866455	
1740741020423	0.01777649	
1740741020424	0.016784668	
1740741020425	0.0019836426	
1740741020426	-0.009536743	
1740741020427	-0.011138916	
1740741020428	-0.0024414062	
1740741020429	-0.002670288	
1740741020430	0.004119873	
1740741020431	0.016860962	
1740741020432	0.015563965	
1740741020433	0.01121521	
1740741020434	7.6293945E-5	
1740741020435	-0.020217896	
1740741020436	-0.029067993	
1740741020437	-0.021057129	
1740741020438	-0.01739502	
1740741020439	-0.024032593	
1740741020440	-0.018539429	
1740741020441	-0.00793457	
1740741020442	-1.5258789E-4	
1740741020443	0.007247925	
1740741020444	0.009460449	
1740741020445	0.011672974	
1740741020446	0.013504028	
1740741020447	0.014877319	
1740741020448	0.009002686	
1740741020449	0.006713867	
1740741020450	0.01083374	
1740741020451	0.009841919	
1740741020452	0.009002686	
1740741020453	0.0036621094	
1740741020454	0.0018310547	
1740741020455	-0.001449585	
1740741020456	-0.005569458	
1740741020457	-0.0019836426	
1740741020458	0.0034332275	
1740741020459	0.009307861	
1740741020460	8.392334E-4	
1740741020461	-0.0051879883	
1740741020462	-0.002670288	
1740741020463	-0.007095337	
1740741020464	-0.0060272217	
1740741020465	-0.008239746	
1740741020466	-0.0077056885	
1740741020467	-0.0012969971	
1740741020468	-0.005722046	
1740741020469	-0.006790161	
1740741020470	-0.0019836426	
1740741020471	-0.0020599365	
1740741020472	1.5258789E-4	
1740741020473	0.0038146973	
1740741020474	-0.002670288	
1740741020475	-0.0064086914	
1740741020476	-8.392334E-4	
1740741020477	0.0038146973	
1740741020478	0.010757446	
1740741020479	0.0075531006	
1740741020480	-0.009384155	
1740741020481	-0.02418518	
1740741020482	-0.024337769	
1740741020483	-0.0025177002	
1740741020484	0.009231567	
1740741020485	0.0023651123	
1740741020486	0.012512207	
1740741020487	0.014038086	
1740741020488	0.00579834	
1740741020489	0.014266968	
1740741020490	0.010070801	
1740741020491	0.008850098	
1740741020492	0.021133423	
1740741020493	0.015563965	
1740741020494	0.0033569336	
1740741020495	0.0015258789	
1740741020496	0.0011444092	
1740741020497	-0.00831604	
1740741020498	-0.013504028	
1740741020499	-0.023880005	
1740741020500	-0.03211975	
1740741020501	-0.008087158	
1740741020502	0.0035095215	
1740741020503	-0.0032043457	
1740741020504	-0.0030517578	
1740741020505	-0.0022888184	
1740741020506	0.009536743	
1740741020507	0.004501343	
1740741020508	0.0017547607	
1740741020509	0.015945435	
1740741020510	-0.0048065186	
1740741020511	-0.012283325	
1740741020512	0.0	
1740741020513	-0.009384155	
1740741020514	-0.008087158	
1740741020515	-0.00289917	
1740741020516	0.012435913	
1740741020517	0.020065308	
1740741020518	-0.0062561035	
1740741020519	-0.0033569336	
1740741020520	0.020980835	
1740741020521	0.015563965	
1740741020522	0.005645752	
1740741020523	-0.0049591064	
1740741020524	-0.015106201	
1740741020525	-0.017471313	
1740741020526	-0.024795532	
1740741020527	-0.0032043457	
1740741020528	0.03829956	
1740741020529	0.021362305	
1740741020530	-0.015716553	
1740741020531	-0.012435913	
1740741020532	-6.1035156E-4	
1740741020533	0.0018310547	
1740741020534	-4.5776367E-4	
1740741020535	0.0051116943	
1740741020536	0.0073242188	
1740741020537	-0.005645752	
1740741020538	-0.010604858	
1740741020539	-0.007171631	
1740741020540	0.0018310547	
1740741020541	0.011062622	
1740741020542	0.013046265	
1740741020543	0.00289917	
1740741020544	-0.0104522705	
1740741020545	-3.0517578E-4	
1740741020546	0.0066375732	
1740741020547	0.008010864	
1740741020548	0.013885498	
1740741020549	-0.0031280518	
1740741020550	-0.00831604	
1740741020551	-0.01083374	
1740741020552	-0.029754639	
1740741020553	-0.033798218	
1740741020554	-0.04875183	
1740741020555	-0.038223267	
1740741020556	0.009307861	
1740741020557	0.032730103	
1740741020558	0.05317688	
1740741020559	0.047607422	
1740741020560	-0.006790161	
1740741020561	-0.04371643	
1740741020562	-0.022125244	
1740741020563	0.027313232	
1740741020564	0.045547485	
1740741020565	0.035858154	
1740741020566	0.03135681	
1740741020567	0.020217896	
1740741020568	1.5258789E-4	
1740741020569	-0.015945435	
1740741020570	-0.012817383	
1740741020571	0.007171631	
1740741020572	9.1552734E-4	
1740741020573	-0.013809204	
1740741020574	-0.013580322	
1740741020575	-0.010986328	
1740741020576	-0.012359619	
1740741020577	-0.021820068	
1740741020578	-0.025863647	
1740741020579	-0.02494812	
1740741020580	-0.017929077	
1740741020581	-0.0060272217	
1740741020582	0.0	
1740741020583	0.008468628	
1740741020584	0.01121521	
1740741020585	0.01159668	
1740741020586	0.012969971	
1740741020587	0.008621216	
1740741020588	0.007858276	
1740741020589	0.0045776367	
1740741020590	0.004043579	
1740741020591	0.0048065186	
1740741020592	0.004196167	
1740741020593	0.0025939941	
1740741020594	-0.005874634	
1740741020595	-0.0035095215	
1740741020596	3.0517578E-4	
1740741020597	-5.340576E-4	
1740741020598	0.0037384033	
1740741020599	-9.918213E-4	
1740741020600	0.0016784668	
1740741020601	0.0035095215	
1740741020602	-0.004348755	
1740741020603	-0.004425049	
1740741020604	0.0018310547	
1740741020605	0.005340576	
1740741020606	-0.002822876	
1740741020607	-0.0023651123	
1740741020608	-0.002822876	
1740741020609	-0.008468628	
1740741020610	0.0035858154	
1740741020611	0.0048065186	
1740741020612	-0.0047302246	
1740741020613	0.0019073486	
1740741020614	0.0012207031	
1740741020615	-0.008010864	
1740741020616	-0.0012969971	
1740741020617	-2.2888184E-4	
1740741020618	9.1552734E-4	
1740741020619	0.008010864	
1740741020620	2.2888184E-4	
1740741020621	-8.392334E-4	
1740741020622	0.0048828125	
1740741020623	0.0038909912	
1740741020624	-0.0025939941	
1740741020625	-0.0076293945	
1740741020626	-0.007858276	
1740741020627	-0.00869751	
1740741020628	-0.0019073486	
1740741020629	0.004348755	
1740741020630	0.0038146973	
1740741020631	0.002746582	
1740741020632	-6.1035156E-4	
1740741020633	-0.002670288	
1740741020634	0.0017547607	
1740741020635	0.0036621094	
1740741020636	0.0012969971	
1740741020637	9.918213E-4	
1740741020638	0.0025939941	
1740741020639	7.6293945E-4	
1740741020640	0.0031280518	
1740741020641	0.0104522705	
1740741020642	0.002822876	
1740741020643	-9.1552734E-4	
1740741020644	0.0012969971	
1740741020645	-0.0037384033	
1740741020646	-0.0010681152	
1740741020647	0.0031280518	
1740741020648	0.0015258789	
1740741020649	0.0031280518	
1740741020650	-3.0517578E-4	
1740741020651	-0.007019043	
1740741020652	-3.0517578E-4	
1740741020653	8.392334E-4	
1740741020654	-6.866455E-4	
1740741020655	-1.5258789E-4	
1740741020656	-0.005264282	
1740741020657	-0.0015258789	
1740741020658	-0.0029754639	
1740741020659	-0.0025177002	
1740741020660	0.009155273	
1740741020661	-0.0047302246	
1740741020662	-0.02784729	
1740741020663	-0.024261475	
1740741020664	-0.001449585	
1740741020665	0.018539429	
1740741020666	0.021820068	
1740741020667	0.012359619	
1740741020668	-2.2888184E-4	
1740741020669	-0.016784668	
1740741020670	-0.019760132	
1740741020671	0.00831604	
1740741020672	0.021209717	
1740741020673	0.010604858	
1740741020674	0.004272461	
1740741020675	0.0048065186	
1740741020676	0.0066375732	
1740741020677	-0.0118255615	
1740741020678	-0.021896362	
1740741020679	-0.014877319	
1740741020680	-0.018692017	
1740741020681	-0.015411377	
1740741020682	-0.00541687	
1740741020683	0.0022125244	
1740741020684	0.0061798096	
1740741020685	0.0077056885	
1740741020686	0.012359619	
1740741020687	0.015335083	
1740741020688	0.012359619	
1740741020689	0.0074005127	
1740741020690	0.012969971	
1740741020691	0.02494812	
1740741020692	0.03326416	
1740741020693	0.027542114	
1740741020694	0.010986328	
1740741020695	-3.8146973E-4	
1740741020696	-0.016860962	
1740741020697	-0.03807068	
1740741020698	-0.03593445	
1740741020699	-0.010375977	
1740741020700	-1.5258789E-4	
1740741020701	-0.009841919	
1740741020702	-0.016860962	
1740741020703	-0.020980835	
1740741020704	-0.014343262	
1740741020705	-8.392334E-4	
1740741020706	0.0090789795	
1740741020707	0.0132751465	
1740741020708	0.0051879883	
1740741020709	0.0050354004	
1740741020710	0.010681152	
1740741020711	0.0036621094	
1740741020712	0.0010681152	
1740741020713	-0.004119873	
1740741020714	-0.0075531006	
1740741020715	-0.0016021729	
1740741020716	9.918213E-4	
1740741020717	0.0025939941	
1740741020718	0.0020599365	
1740741020719	4.5776367E-4	
1740741020720	2.2888184E-4	
1740741020721	0.0019073486	
1740741020722	-0.0022888184	
1740741020723	-0.0029754639	
1740741020724	0.0066375732	
1740741020725	0.008163452	
1740741020726	0.009689331	
1740741020727	0.01121521	
1740741020728	-0.0029754639	
1740741020729	-0.010757446	
1740741020730	-0.0065612793	
1740741020731	-0.0010681152	
1740741020732	0.0047302246	
1740741020733	0.002670288	
1740741020734	-0.002670288	
1740741020735	-0.0073242188	
1740741020736	-0.0046539307	
1740741020737	0.002746582	
1740741020738	0.009384155	
1740741020739	0.014419556	
1740741020740	0.008010864	
1740741020741	-0.00831604	
1740741020742	-0.010299683	
1740741020743	-0.0077056885	
1740741020744	-0.0090789795	
1740741020745	0.0019836426	
1740741020746	-7.6293945E-4	
1740741020747	-0.01449585	
1740741020748	-0.014419556	
1740741020749	0.0061035156	
1740741020750	0.023727417	
1740741020751	0.025100708	
1740741020752	0.010910034	
1740741020753	-0.02067566	
1740741020754	-0.027999878	
1740741020755	-0.0146484375	
1740741020756	0.004425049	
1740741020757	0.0146484375	
1740741020758	0.010223389	
1740741020759	0.018081665	
1740741020760	0.011672974	
1740741020761	-0.0012207031	
1740741020762	6.866455E-4	
1740741020763	-0.00579834	
1740741020764	-0.018844604	
1740741020765	-0.031204224	
1740741020766	-0.03868103	
1740741020767	-0.026245117	
1740741020768	0.012054443	
1740741020769	0.034942627	
1740741020770	0.017166138	
1740741020771	-0.0029754639	
1740741020772	0.001449585	
1740741020773	0.020751953	
1740741020774	0.040283203	
1740741020775	0.03883362	
1740741020776	0.026168823	
1740741020777	0.020599365	
1740741020778	-3.8146973E-4	
1740741020779	-0.02784729	
1740741020780	-0.042114258	
1740741020781	-0.029373169	
1740741020782	-0.011291504	
1740741020783	-0.03463745	
1740741020784	-0.048675537	
1740741020785	-0.037002563	
1740741020786	-0.030822754	
1740741020787	-0.0064849854	
1740741020788	0.015182495	
1740741020789	0.024795532	
1740741020790	0.042800903	
1740741020791	0.03692627	
1740741020792	0.035858154	
1740741020793	0.038146973	
1740741020794	0.021972656	
1740741020795	0.022735596	
1740741020796	0.014038086	
1740741020797	0.0016784668	
1740741020798	0.004272461	
1740741020799	-0.005264282	
1740741020800	-0.019226074	
1740741020801	-0.026931763	
1740741020802	-0.04020691	
1740741020803	-0.039215088	
1740741020804	-0.015258789	
1740741020805	-0.004196167	
1740741020806	-0.001449585	
1740741020807	0.0025939941	
1740741020808	0.002746582	
1740741020809	0.0032806396	
1740741020810	0.0	
1740741020811	0.011749268	
1740741020812	0.015563965	
1740741020813	0.0051116943	
1740741020814	0.010070801	
1740741020815	0.00579834	
1740741020816	-0.0065612793	
1740741020817	-0.01625061	
1740741020818	-0.0132751465	
1740741020819	0.005493164	
1740741020820	0.0048828125	
1740741020821	-6.1035156E-4	
1740741020822	0.0035858154	
1740741020823	-8.392334E-4	
1740741020824	-0.0012969971	
1740741020825	0.0033569336	
1740741020826	0.00831604	
1740741020827	0.004119873	
1740741020828	-0.0060272217	
1740741020829	-0.004272461	
1740741020830	-0.019073486	
1740741020831	-0.022354126	
1740741020832	0.01586914	
1740741020833	0.012359619	
1740741020834	-0.023727417	
1740741020835	-0.02243042	
1740741020836	-0.007019043	
1740741020837	0.0035858154	
1740741020838	0.031585693	
1740741020839	0.065078735	
1740741020840	0.052490234	
1740741020841	-0.005264282	
1740741020842	-0.035095215	
1740741020843	0.0022888184	
1740741020844	0.023422241	
1740741020845	-6.866455E-4	
1740741020846	-0.008468628	
1740741020847	-0.018157959	
1740741020848	-0.021057129	
1740741020849	-0.01586914	
1740741020850	-0.018692017	
1740741020851	-0.009689331	
1740741020852	-0.013198853	
1740741020853	-0.00793457	
1740741020854	0.006713867	
1740741020855	0.0	
1740741020856	0.0035095215	
1740741020857	0.0146484375	
1740741020858	0.009231567	
1740741020859	-0.002746582	
1740741020860	-0.010070801	
1740741020861	-0.013885498	
1740741020862	-0.013504028	
1740741020863	-0.009460449	
1740741020864	-0.005645752	
1740741020865	0.005645752	
1740741020866	0.021820068	
1740741020867	0.033950806	
1740741020868	0.034713745	
1740741020869	0.0077056885	
1740741020870	-0.008926392	
1740741020871	-0.005722046	
1740741020872	-0.011367798	
1740741020873	-0.0019073486	
1740741020874	-6.866455E-4	
1740741020875	0.004272461	
1740741020876	0.03501892	
1740741020877	0.036697388	
1740741020878	0.025405884	
1740741020879	0.011672974	
1740741020880	-0.015182495	
1740741020881	-0.040359497	
1740741020882	-0.070877075	
1740741020883	-0.06599426	
1740741020884	-0.01663208	
1740741020885	0.02456665	
1740741020886	0.032196045	
1740741020887	0.037231445	
1740741020888	0.02746582	
1740741020889	-0.03303528	
1740741020890	-0.06813049	
1740741020891	-0.07873535	
1740741020892	-0.05859375	
1740741020893	0.004425049	
1740741020894	0.025787354	
1740741020895	0.044326782	
1740741020896	0.056991577	
1740741020897	0.049362183	
1740741020898	0.05630493	
1740741020899	0.03593445	
1740741020900	0.027160645	
1740741020901	0.01953125	
1740741020902	-0.036239624	
1740741020903	-0.048294067	
1740741020904	-0.00831604	
1740741020905	-0.009155273	
1740741020906	-0.019073486	
1740741020907	0.0035858154	
1740741020908	0.010986328	
1740741020909	0.004119873	
1740741020910	0.0035858154	
1740741020911	9.1552734E-4	
1740741020912	0.008239746	
1740741020913	0.011062622	
1740741020914	0.004501343	
1740741020915	0.0019836426	
1740741020916	-0.0059509277	
1740741020917	-0.013885498	
1740741020918	-0.017547607	
1740741020919	-0.014572144	
1740741020920	-0.010070801	
1740741020921	-0.010986328	
1740741020922	-0.00869751	
1740741020923	-0.0045776367	
1740741020924	-0.0024414062	
1740741020925	-0.0029754639	
1740741020926	0.001449585	
1740741020927	0.009384155	
1740741020928	0.004501343	
1740741020929	-0.0034332275	
1740741020930	-3.8146973E-4	
1740741020931	0.0051116943	
1740741020932	0.004272461	
1740741020933	0.0038909912	
1740741020934	0.0030517578	
1740741020935	0.0010681152	
1740741020936	0.0024414062	
1740741020937	0.0019836426	
1740741020938	0.004043579	
1740741020939	0.008239746	
1740741020940	0.001373291	
1740741020941	0.0016784668	
1740741020942	0.009536743	
1740741020943	-1.5258789E-4	
1740741020944	-9.918213E-4	
1740741020945	0.0064086914	
1740741020946	-0.0012969971	
1740741020947	-0.002670288	
1740741020948	-0.004043579	
1740741020949	-0.005340576	
1740741020950	-0.004119873	
1740741020951	-0.0076293945	
1740741020952	-0.004272461	
1740741020953	-0.0020599365	
1740741020954	-0.0018310547	
1740741020955	-0.0024414062	
1740741020956	-0.0032043457	
1740741020957	0.0034332275	
1740741020958	9.918213E-4	
1740741020959	-0.0034332275	
1740741020960	0.0022125244	
1740741020961	-0.0019836426	
1740741020962	-0.0032043457	
1740741020963	0.006790161	
1740741020964	7.6293945E-4	
1740741020965	-0.0018310547	
1740741020966	0.008010864	
1740741020967	0.012512207	
1740741020968	0.023422241	
1740741020969	0.014266968	
1740741020970	-0.009689331	
1740741020971	-0.020599365	
1740741020972	-0.04310608	
1740741020973	-0.04096985	
1740741020974	-0.015182495	
1740741020975	0.0036621094	
1740741020976	0.026855469	
1740741020977	0.010910034	
1740741020978	-0.016555786	
1740741020979	-0.0132751465	
1740741020980	0.00541687	
1740741020981	0.036087036	
1740741020982	0.03227234	
1740741020983	5.340576E-4	
1740741020984	-0.033340454	
1740741020985	-0.04989624	
1740741020986	-7.6293945E-4	
1740741020987	0.041046143	
1740741020988	0.061035156	
1740741020989	0.117263794	
1740741020990	0.12657166	
1740741020991	0.041427612	
1740741020992	-0.056915283	
1740741020993	-0.089035034	
1740741020994	-0.07850647	
1740741020995	-0.06271362	
1740741020996	-0.012283325	
1740741020997	-0.0032043457	
1740741020998	-0.048828125	
1740741020999	-0.041046143	
1740741021000	0.005340576	
1740741021001	0.0076293945	
1740741021002	0.004043579	
1740741021003	0.01838684	
1740741021004	-0.0060272217	
1740741021005	-0.01335144	
1740741021006	0.009918213	
1740741021007	-0.011978149	
1740741021008	-0.0415802	
1740741021009	-0.03555298	
1740741021010	-0.00793457	
1740741021011	0.01586914	
1740741021012	0.022583008	
1740741021013	0.030212402	
1740741021014	0.030441284	
1740741021015	0.016174316	
1740741021016	0.023956299	
1740741021017	0.052108765	
1740741021018	0.054626465	
1740741021019	0.029907227	
1740741021020	-0.0047302246	
1740741021021	-0.037994385	
1740741021022	-0.037002563	
1740741021023	-0.021057129	
1740741021024	-0.0051116943	
1740741021025	0.019607544	
1740741021026	0.017166138	
1740741021027	0.008163452	
1740741021028	0.009384155	
1740741021029	-0.0015258789	
1740741021030	-0.013809204	
1740741021031	-0.023422241	
1740741021032	-0.01411438	
1740741021033	-0.00289917	
1740741021034	-0.010604858	
1740741021035	-0.0118255615	
1740741021036	-0.01159668	
1740741021037	-0.012817383	
1740741021038	-0.008544922	
1740741021039	-0.005874634	
1740741021040	0.0012207031	
1740741021041	0.0059509277	
1740741021042	0.005264282	
1740741021043	0.010681152	
1740741021044	0.007858276	
1740741021045	-0.0032043457	
1740741021046	0.0051116943	
1740741021047	0.0076293945	
1740741021048	-0.0034332275	
1740741021049	-0.003967285	
1740741021050	-0.013656616	
1740741021051	-0.012435913	
1740741021052	0.004272461	
1740741021053	0.0024414062	
1740741021054	0.0032806396	
1740741021055	0.008239746	
1740741021056	0.005493164	
1740741021057	0.005722046	
1740741021058	-0.0024414062	
1740741021059	-0.010986328	
1740741021060	-0.0048065186	
1740741021061	9.1552734E-4	
1740741021062	0.009307861	
1740741021063	0.020980835	
1740741021064	0.018310547	
1740741021065	0.011672974	
1740741021066	0.015182495	
1740741021067	0.01159668	
1740741021068	-0.0022888184	
1740741021069	-0.0063323975	
1740741021070	-0.016098022	
1740741021071	-0.043182373	
1740741021072	-0.057754517	
1740741021073	-0.03883362	
1740741021074	0.0035095215	
1740741021075	0.029220581	
1740741021076	0.032577515	
1740741021077	0.021896362	
1740741021078	0.0077056885	
1740741021079	0.0074005127	
1740741021080	0.0035858154	
1740741021081	-0.0029754639	
1740741021082	-0.0011444092	
1740741021083	0.0038146973	
1740741021084	0.0064086914	
1740741021085	0.015563965	
1740741021086	0.021896362	
1740741021087	0.0289917	
1740741021088	0.024108887	
1740741021089	-9.918213E-4	
1740741021090	-0.011138916	
1740741021091	-0.025405884	
1740741021092	-0.034103394	
1740741021093	-0.040130615	
1740741021094	-0.0617218	
1740741021095	-0.07347107	
1740741021096	-0.055160522	
1740741021097	0.017318726	
1740741021098	0.057296753	
1740741021099	0.05065918	
1740741021100	0.05317688	
1740741021101	0.017929077	
1740741021102	-0.011062622	
1740741021103	-0.0016784668	
1740741021104	0.019454956	
1740741021105	0.031585693	
1740741021106	0.017242432	
1740741021107	0.009307861	
1740741021108	0.004119873	
1740741021109	-0.0019836426	
1740741021110	-0.012664795	
1740741021111	-0.022659302	
1740741021112	-0.0022125244	
1740741021113	0.019607544	
1740741021114	0.02128601	
1740741021115	0.005569458	
1740741021116	-0.015029907	
1740741021117	-0.01449585	
1740741021118	-0.027694702	
1740741021119	-0.055999756	
1740741021120	-0.07102966	
1740741021121	-0.05706787	
1740741021122	-0.0051879883	
1740741021123	0.032730103	
1740741021124	0.039596558	
1740741021125	0.035705566	
1740741021126	0.02822876	
1740741021127	0.0104522705	
1740741021128	0.004348755	
1740741021129	0.015106201	
1740741021130	0.016098022	
1740741021131	0.013580322	
1740741021132	0.011520386	
1740741021133	0.017166138	
1740741021134	0.016098022	
1740741021135	0.004501343	
1740741021136	0.0064849854	
1740741021137	-0.0016784668	
1740741021138	-0.012512207	
1740741021139	-0.010910034	
1740741021140	-0.015182495	
1740741021141	-0.011444092	
1740741021142	-0.013427734	
1740741021143	-0.024261475	
1740741021144	-0.0073242188	
1740741021145	0.005264282	
1740741021146	0.0	
1740741021147	3.8146973E-4	
1740741021148	-0.006942749	
1740741021149	-0.01449585	
1740741021150	-0.014724731	
1740741021151	-0.017852783	
1740741021152	-0.036315918	
1740741021153	-0.057144165	
1740741021154	-0.031280518	
1740741021155	0.019683838	
1740741021156	0.061645508	
1740741021157	0.09399414	
1740741021158	0.097579956	
1740741021159	0.061035156	
1740741021160	-0.014724731	
1740741021161	-0.0705719	
1740741021162	-0.047454834	
1740741021163	0.0036621094	
1740741021164	0.016326904	
1740741021165	0.010604858	
1740741021166	0.011520386	
1740741021167	-0.0035095215	
1740741021168	-0.023727417	
1740741021169	-0.021209717	
1740741021170	-0.01411438	
1740741021171	-0.013656616	
1740741021172	-0.011367798	
1740741021173	-0.010147095	
1740741021174	-0.0038146973	
1740741021175	0.013046265	
1740741021176	0.014572144	
1740741021177	0.0019836426	
1740741021178	-0.0023651123	
1740741021179	-0.018310547	
1740741021180	-0.02456665	
1740741021181	0.0045776367	
1740741021182	0.015640259	
1740741021183	0.007095337	
1740741021184	0.011672974	
1740741021185	0.013046265	
1740741021186	0.015335083	
1740741021187	0.012283325	
1740741021188	6.1035156E-4	
1740741021189	-0.0048065186	
1740741021190	-0.010910034	
1740741021191	-0.0090789795	
1740741021192	-0.004196167	
1740741021193	-0.0066375732	
1740741021194	-0.0045776367	
1740741021195	0.0045776367	
1740741021196	0.0090789795	
1740741021197	0.00793457	
1740741021198	0.0051116943	
1740741021199	0.0032806396	
1740741021200	0.005340576	
1740741021201	0.0064849854	
1740741021202	0.007171631	
1740741021203	0.0019073486	
1740741021204	-0.009460449	
1740741021205	-0.0023651123	
1740741021206	0.015029907	
1740741021207	0.0060272217	
1740741021208	-0.0064849854	
1740741021209	-0.0063323975	
1740741021210	-0.032730103	
1740741021211	-0.04623413	
1740741021212	-0.01991272	
1740741021213	-0.004425049	
1740741021214	0.0018310547	
1740741021215	0.00289917	
1740741021216	-3.0517578E-4	
1740741021217	0.013961792	
1740741021218	0.026245117	
1740741021219	0.0289917	
1740741021220	0.025405884	
1740741021221	0.0038909912	
1740741021222	-0.018005371	
1740741021223	-0.025253296	
1740741021224	-0.018692017	
1740741021225	0.0065612793	
1740741021226	0.019226074	
1740741021227	0.011138916	
1740741021228	0.013961792	
1740741021229	0.016326904	
1740741021230	0.008392334	
1740741021231	0.0025177002	
1740741021232	0.004425049	
1740741021233	0.0077819824	
1740741021234	-0.021133423	
1740741021235	-0.053024292	
1740741021236	-0.03479004	
1740741021237	-0.007171631	
1740741021238	-0.012741089	
1740741021239	-0.013809204	
1740741021240	0.004348755	
1740741021241	0.007171631	
1740741021242	0.015411377	
1740741021243	0.025558472	
1740741021244	0.012817383	
1740741021245	0.019226074	
1740741021246	0.04386902	
1740741021247	0.033187866	
1740741021248	0.0064849854	
1740741021249	-0.012130737	
1740741021250	-0.057907104	
1740741021251	-0.07110596	
1740741021252	-0.012283325	
1740741021253	0.02784729	
1740741021254	0.0289917	
1740741021255	0.012588501	
1740741021256	-0.010986328	
1740741021257	0.005645752	
1740741021258	0.024414062	
1740741021259	-0.0064086914	
1740741021260	-0.03677368	
1740741021261	-0.03479004	
1740741021262	-0.015411377	
1740741021263	0.0021362305	
1740741021264	0.0038146973	
1740741021265	0.015029907	
1740741021266	0.028762817	
1740741021267	0.020904541	
1740741021268	0.01411438	
1740741021269	0.014877319	
1740741021270	0.01701355	
1740741021271	0.016174316	
1740741021272	0.0023651123	
1740741021273	-0.00869751	
1740741021274	-0.0048828125	
1740741021275	-0.00541687	
1740741021276	-0.0077819824	
1740741021277	-0.010604858	
1740741021278	-0.010986328	
1740741021279	-0.005340576	
1740741021280	-0.0118255615	
1740741021281	-0.009689331	
1740741021282	-0.002670288	
1740741021283	-0.0074005127	
1740741021284	-0.0038146973	
1740741021285	-0.0020599365	
1740741021286	-9.1552734E-4	
1740741021287	0.00289917	
1740741021288	0.008239746	
1740741021289	0.011978149	
1740741021290	-0.0032043457	
1740741021291	-0.024719238	
1740741021292	-0.021896362	
1740741021293	-0.005569458	
1740741021294	-0.006942749	
1740741021295	0.0	
1740741021296	0.011291504	
1740741021297	0.0025939941	
1740741021298	0.0036621094	
1740741021299	0.006713867	
1740741021300	0.009460449	
1740741021301	0.015335083	
1740741021302	0.008850098	
1740741021303	0.0038146973	
1740741021304	-0.005874634	
1740741021305	-0.006713867	
1740741021306	0.0064849854	
1740741021307	0.009613037	
1740741021308	0.014266968	
1740741021309	0.01121521	
1740741021310	0.0066375732	
1740741021311	0.01121521	
1740741021312	6.1035156E-4	
1740741021313	-0.008392334	
1740741021314	-0.020217896	
1740741021315	-0.020141602	
1740741021316	0.0019836426	
1740741021317	0.004348755	
1740741021318	0.0024414062	
1740741021319	0.0047302246	
1740741021320	0.004348755	
1740741021321	0.009002686	
1740741021322	0.0015258789	
1740741021323	-0.0118255615	
1740741021324	-0.010528564	
1740741021325	-0.006942749	
1740741021326	-0.010910034	
1740741021327	-0.007019043	
1740741021328	0.002670288	
1740741021329	0.005264282	
1740741021330	0.0075531006	
1740741021331	0.010604858	
1740741021332	0.006942749	
1740741021333	-8.392334E-4	
1740741021334	-0.00869751	
1740741021335	-0.006942749	
1740741021336	-0.012969971	
1740741021337	-0.033798218	
1740741021338	-0.021514893	
1740741021339	-0.001373291	
1740741021340	-7.6293945E-4	
1740741021341	0.010910034	
1740741021342	0.0146484375	
1740741021343	0.011672974	
1740741021344	0.00869751	
1740741021345	-8.392334E-4	
1740741021346	-0.006866455	
1740741021347	-0.002670288	
1740741021348	0.025405884	
1740741021349	0.03829956	
1740741021350	0.018997192	
1740741021351	0.008544922	
1740741021352	-0.0022125244	
1740741021353	-0.026473999	
1740741021354	-0.031585693	
1740741021355	-0.005722046	
1740741021356	0.0051879883	
1740741021357	8.392334E-4	
1740741021358	-0.0029754639	
1740741021359	-0.011367798	
1740741021360	0.0047302246	
1740741021361	0.022735596	
1740741021362	0.037231445	
1740741021363	0.06858826	
1740741021364	0.07736206	
1740741021365	0.07110596	
1740741021366	0.01663208	
1740741021367	-0.11016846	
1740741021368	-0.21026611	
1740741021369	-0.2746582	
1740741021370	-0.24627686	
1740741021371	-0.038604736	
1740741021372	0.16418457	
1740741021373	0.20378113	
1740741021374	0.13893127	
1740741021375	0.115737915	
1740741021376	0.10681152	
1740741021377	0.053253174	
1740741021378	0.025482178	
1740741021379	0.0051879883	
1740741021380	-0.021057129	
1740741021381	-0.0022125244	
1740741021382	0.021820068	
1740741021383	0.016555786	
1740741021384	0.0074005127	
1740741021385	-0.01121521	
1740741021386	-0.08300781	
1740741021387	-0.15258789	
1740741021388	-0.0982666	
1740741021389	-0.012969971	
1740741021390	-0.008239746	
1740741021391	-0.028305054	
1740741021392	-0.05279541	
1740741021393	-0.03715515	
1740741021394	0.0132751465	
1740741021395	0.03036499	
1740741021396	0.029830933	
1740741021397	0.025939941	
1740741021398	0.039596558	
1740741021399	0.056762695	
1740741021400	0.0541687	
1740741021401	0.037612915	
1740741021402	0.012969971	
1740741021403	0.015258789	
1740741021404	0.019760132	
1740741021405	0.008621216	
1740741021406	0.0031280518	
1740741021407	-0.00289917	
1740741021408	-0.009841919	
1740741021409	-0.023269653	
1740741021410	-0.014266968	
1740741021411	2.2888184E-4	
1740741021412	-0.01373291	
1740741021413	-0.012435913	
1740741021414	-0.0035858154	
1740741021415	-0.004119873	
1740741021416	-0.0076293945	
1740741021417	-0.01083374	
1740741021418	-0.0032806396	
1740741021419	-0.007858276	
1740741021420	-0.015716553	
1740741021421	-0.00869751	
1740741021422	-0.0066375732	
1740741021423	-0.004196167	
1740741021424	0.005569458	
1740741021425	0.0023651123	
1740741021426	-0.0036621094	
1740741021427	0.0019073486	
1740741021428	0.001449585	
1740741021429	0.0032043457	
1740741021430	0.0051116943	
1740741021431	-0.001373291	
1740741021432	0.004501343	
1740741021433	0.012435913	
1740741021434	0.0031280518	
1740741021435	-0.0075531006	
1740741021436	-6.866455E-4	
1740741021437	0.003967285	
1740741021438	-1.5258789E-4	
1740741021439	0.003967285	
1740741021440	0.009384155	
1740741021441	0.010147095	
1740741021442	0.004119873	
1740741021443	-3.8146973E-4	
1740741021444	-0.004501343	
1740741021445	-0.01121521	
1740741021446	-0.009460449	
1740741021447	0.0036621094	
1740741021448	0.008468628	
1740741021449	-0.002746582	
1740741021450	-0.0038909912	
1740741021451	7.6293945E-4	
1740741021452	0.0032806396	
1740741021453	0.005569458	
1740741021454	1.5258789E-4	
1740741021455	0.0012207031	
1740741021456	0.0049591064	
1740741021457	0.0032806396	
1740741021458	0.0012207031	
1740741021459	3.0517578E-4	
1740741021460	0.0010681152	
1740741021461	-0.0035095215	
1740741021462	-0.004501343	
1740741021463	-0.013580322	
1740741021464	-0.022964478	
1740741021465	-0.0066375732	
1740741021466	0.0019836426	
1740741021467	0.0048828125	
1740741021468	0.014877319	
1740741021469	0.0049591064	
1740741021470	-0.0034332275	
1740741021471	-0.0038146973	
1740741021472	-0.005874634	
1740741021473	7.6293945E-4	
1740741021474	0.0077819824	
1740741021475	0.0090789795	
1740741021476	0.0047302246	
1740741021477	0.009002686	
1740741021478	0.018997192	
1740741021479	0.008468628	
1740741021480	-0.008544922	
1740741021481	-0.025939941	
1740741021482	-0.030059814	
1740741021483	0.002822876	
1740741021484	0.010147095	
1740741021485	-0.0074768066	
1740741021486	0.0018310547	
1740741021487	-0.00541687	
1740741021488	-0.011291504	
1740741021489	0.015640259	
1740741021490	0.008163452	
1740741021491	-0.012741089	
1740741021492	0.0035858154	
1740741021493	-0.0012207031	
1740741021494	-0.033340454	
1740741021495	-0.032806396	
1740741021496	-0.0066375732	
1740741021497	0.010299683	
1740741021498	0.033187866	
1740741021499	0.050048828	
1740741021500	0.03250122	
1740741021501	0.018310547	
1740741021502	0.018539429	
1740741021503	-0.004501343	
1740741021504	-0.020141602	
1740741021505	-0.009994507	
1740741021506	0.0012969971	
1740741021507	0.012512207	
1740741021508	-0.0025177002	
1740741021509	-0.024414062	
1740741021510	-0.0060272217	
1740741021511	0.012130737	
1740741021512	0.014419556	
1740741021513	0.009918213	
1740741021514	-0.009613037	
1740741021515	-0.018920898	
1740741021516	-0.023422241	
1740741021517	-0.032730103	
1740741021518	-0.048828125	
1740741021519	-0.03929138	
1740741021520	-0.006713867	
1740741021521	-0.006790161	
1740741021522	0.0340271	
1740741021523	0.05973816	
1740741021524	0.012512207	
1740741021525	-0.009765625	
1740741021526	-0.03189087	
1740741021527	-0.03791809	
1740741021528	-0.0146484375	
1740741021529	-0.012207031	
1740741021530	0.013580322	
1740741021531	0.041656494	
1740741021532	0.04005432	
1740741021533	0.06980896	
1740741021534	0.09933472	
1740741021535	0.06729126	
1740741021536	0.024032593	
1740741021537	0.0016021729	
1740741021538	-0.026321411	
1740741021539	-0.037460327	
1740741021540	-0.035858154	
1740741021541	-0.03829956	
1740741021542	-0.042266846	
1740741021543	-0.03425598	
1740741021544	-0.0061035156	
1740741021545	-0.0049591064	
1740741021546	-0.012283325	
1740741021547	-0.013427734	
1740741021548	-0.04058838	
1740741021549	-0.044021606	
1740741021550	-0.018920898	
1740741021551	-0.011749268	
1740741021552	-0.009384155	
1740741021553	-0.0051116943	
1740741021554	-0.0065612793	
1740741021555	0.012741089	
1740741021556	0.033493042	
1740741021557	0.026245117	
1740741021558	0.025405884	
1740741021559	0.022506714	
1740741021560	0.018157959	
1740741021561	0.022354126	
1740741021562	0.014190674	
1740741021563	0.010604858	
1740741021564	0.011138916	
1740741021565	0.0065612793	
1740741021566	0.0031280518	
1740741021567	0.004501343	
1740741021568	0.0019836426	
1740741021569	-0.0032043457	
1740741021570	0.0011444092	
1740741021571	0.0	
1740741021572	-0.0090789795	
1740741021573	-0.013656616	
1740741021574	-0.009307861	
1740741021575	6.866455E-4	
1740741021576	-3.0517578E-4	
1740741021577	-0.0065612793	
1740741021578	-0.0015258789	
1740741021579	7.6293945E-4	
1740741021580	-0.0073242188	
1740741021581	-0.014190674	
1740741021582	-0.015792847	
1740741021583	-0.004119873	
1740741021584	0.0032806396	
1740741021585	-0.0049591064	
1740741021586	-0.007171631	
1740741021587	-0.009002686	
1740741021588	-0.0019836426	
1740741021589	0.0074768066	
1740741021590	0.010681152	
1740741021591	0.021057129	
1740741021592	0.013427734	
1740741021593	-0.007171631	
1740741021594	-0.018463135	
1740741021595	-0.019683838	
1740741021596	-0.0020599365	
1740741021597	0.009155273	
1740741021598	-0.0016021729	
1740741021599	0.004043579	
1740741021600	0.014801025	
1740741021601	0.004196167	
1740741021602	0.008392334	
1740741021603	0.015258789	
1740741021604	0.0047302246	
1740741021605	0.010223389	
1740741021606	0.010986328	
1740741021607	0.0017547607	
1740741021608	0.0031280518	
1740741021609	-0.012817383	
1740741021610	-0.03440857	
1740741021611	-0.023727417	
1740741021612	-0.001449585	
1740741021613	0.006790161	
1740741021614	0.0090789795	
1740741021615	-5.340576E-4	
1740741021616	-0.015792847	
1740741021617	-0.0065612793	
1740741021618	0.010299683	
1740741021619	0.012283325	
1740741021620	0.013809204	
1740741021621	0.008621216	
1740741021622	-0.006866455	
1740741021623	-0.02609253	
1740741021624	-0.017547607	
1740741021625	0.035324097	
1740741021626	0.05630493	
1740741021627	0.010910034	
1740741021628	-0.038146973	
1740741021629	-0.050430298	
1740741021630	-0.049743652	
1740741021631	-0.047225952	
1740741021632	-0.012893677	
1740741021633	0.03036499	
1740741021634	0.047531128	
1740741021635	0.044937134	
1740741021636	0.024490356	
1740741021637	-0.013427734	
1740741021638	-0.033111572	
1740741021639	7.6293945E-4	
1740741021640	0.021209717	
1740741021641	0.0021362305	
1740741021642	0.015640259	
1740741021643	0.04524231	
1740741021644	0.029373169	
1740741021645	0.0025939941	
1740741021646	-0.008087158	
1740741021647	-0.031051636	
1740741021648	-0.033416748	
1740741021649	-0.016098022	
1740741021650	-0.012741089	
1740741021651	0.001449585	
1740741021652	0.017700195	
1740741021653	0.016326904	
1740741021654	0.016098022	
1740741021655	0.008010864	
1740741021656	-0.01876831	
1740741021657	-0.03303528	
1740741021658	-0.023956299	
1740741021659	-0.021972656	
1740741021660	-0.021743774	
1740741021661	-0.011367798	
1740741021662	0.0046539307	
1740741021663	0.029830933	
1740741021664	0.030670166	
1740741021665	0.016021729	
1740741021666	0.016555786	
1740741021667	0.0020599365	
1740741021668	-0.011062622	
1740741021669	-0.002746582	
1740741021670	-5.340576E-4	
1740741021671	-0.0029754639	
1740741021672	-0.0061035156	
1740741021673	-0.007247925	
1740741021674	0.0012969971	
1740741021675	0.0060272217	
1740741021676	0.009536743	
1740741021677	0.0074005127	
1740741021678	-0.0038909912	
1740741021679	-0.007019043	
1740741021680	-0.0012207031	
1740741021681	7.6293945E-4	
1740741021682	-0.0031280518	
1740741021683	5.340576E-4	
1740741021684	0.0065612793	
1740741021685	0.0019836426	
1740741021686	-0.008163452	
1740741021687	-0.013427734	
1740741021688	-0.0016021729	
1740741021689	0.015182495	
1740741021690	0.008392334	
1740741021691	-0.0012969971	
1740741021692	-0.004119873	
1740741021693	-0.0076293945	
1740741021694	-0.009307861	
1740741021695	-0.02418518	
1740741021696	-0.03929138	
1740741021697	-0.021972656	
1740741021698	0.021133423	
1740741021699	0.033721924	
1740741021700	0.01586914	
1740741021701	0.007247925	
1740741021702	0.015258789	
1740741021703	0.026245117	
1740741021704	0.009765625	
1740741021705	0.013504028	
1740741021706	0.03463745	
1740741021707	0.00869751	
1740741021708	-0.005264282	
1740741021709	-0.012359619	
1740741021710	-0.035324097	
1740741021711	-0.026550293	
1740741021712	-0.02029419	
1740741021713	-0.023498535	
1740741021714	-0.031280518	
1740741021715	-0.047225952	
1740741021716	-0.02532959	
1740741021717	0.007858276	
1740741021718	0.03074646	
1740741021719	0.06500244	
1740741021720	0.072402954	
1740741021721	0.04096985	
1740741021722	0.01159668	
1740741021723	0.0062561035	
1740741021724	0.008773804	
1740741021725	-0.0049591064	
1740741021726	-0.012969971	
1740741021727	-0.007247925	
1740741021728	-0.010375977	
1740741021729	-0.012817383	
1740741021730	-0.0289917	
1740741021731	-0.05241394	
1740741021732	-0.028457642	
1740741021733	0.006713867	
1740741021734	-0.009384155	
1740741021735	-0.02532959	
1740741021736	-0.019989014	
1740741021737	-0.01411438	
1740741021738	0.013046265	
1740741021739	0.02746582	
1740741021740	0.010528564	
1740741021741	4.5776367E-4	
1740741021742	0.004043579	
1740741021743	0.010223389	
1740741021744	0.017700195	
1740741021745	0.029373169	
1740741021746	0.026245117	
1740741021747	0.0050354004	
1740741021748	-0.005569458	
1740741021749	0.002822876	
1740741021750	0.017166138	
1740741021751	0.02029419	
1740741021752	0.0146484375	
1740741021753	-0.009689331	
1740741021754	-0.05088806	
1740741021755	-0.047454834	
1740741021756	-0.008773804	
1740741021757	0.009841919	
1740741021758	0.018692017	
1740741021759	0.0074005127	
1740741021760	-0.01586914	
1740741021761	-0.0034332275	
1740741021762	0.020141602	
1740741021763	0.0064849854	
1740741021764	-0.017318726	
1740741021765	-0.014343262	
1740741021766	-0.02708435	
1740741021767	-0.0289917	
1740741021768	0.020599365	
1740741021769	0.04119873	
1740741021770	0.021057129	
1740741021771	0.021896362	
1740741021772	0.028152466	
1740741021773	0.013046265	
1740741021774	0.00869751	
1740741021775	0.0034332275	
1740741021776	-0.021820068	
1740741021777	-0.03440857	
1740741021778	-0.038375854	
1740741021779	-0.03135681	
1740741021780	-0.0035858154	
1740741021781	0.020599365	
1740741021782	0.01838684	
1740741021783	-0.008850098	
1740741021784	-0.026626587	
1740741021785	-0.009307861	
1740741021786	0.025634766	
1740741021787	0.048446655	
1740741021788	0.03189087	
1740741021789	-0.011672974	
1740741021790	-0.05142212	
1740741021791	-0.04447937	
1740741021792	0.01335144	
1740741021793	0.031661987	
1740741021794	0.010604858	
1740741021795	-0.006866455	
1740741021796	-0.020065308	
1740741021797	-0.013580322	
1740741021798	-0.014724731	
1740741021799	-0.007858276	
1740741021800	0.016098022	
1740741021801	0.007095337	
1740741021802	0.008850098	
1740741021803	0.02998352	
1740741021804	0.02319336	
1740741021805	0.020065308	
1740741021806	0.025482178	
1740741021807	0.016174316	
1740741021808	0.011138916	
1740741021809	0.012283325	
1740741021810	0.014190674	
1740741021811	0.0104522705	
1740741021812	-0.03189087	
1740741021813	-0.07247925	
1740741021814	-0.07888794	
1740741021815	-0.08872986	
1740741021816	-0.05760193	
1740741021817	0.0074005127	
1740741021818	0.03250122	
1740741021819	0.036468506	
1740741021820	0.036621094	
1740741021821	0.033569336	
1740741021822	0.029754639	
1740741021823	0.01838684	
1740741021824	0.017547607	
1740741021825	0.008392334	
1740741021826	-5.340576E-4	
1740741021827	0.017623901	
1740741021828	0.02532959	
1740741021829	0.021896362	
1740741021830	0.0022888184	
1740741021831	-0.035476685	
1740741021832	-0.05897522	
1740741021833	-0.04638672	
1740741021834	0.003967285	
1740741021835	0.021438599	
1740741021836	0.012054443	
1740741021837	0.018920898	
1740741021838	0.006866455	
1740741021839	-0.0064086914	
1740741021840	-0.017700195	
1740741021841	-0.021743774	
1740741021842	-0.0051116943	
1740741021843	0.005645752	
1740741021844	0.010070801	
1740741021845	0.015792847	
1740741021846	0.01876831	
1740741021847	0.012054443	
1740741021848	0.0020599365	
1740741021849	0.0074005127	
1740741021850	0.010910034	
1740741021851	0.00541687	
1740741021852	0.0048828125	
1740741021853	-0.004501343	
1740741021854	-0.022201538	
1740741021855	-0.035324097	
1740741021856	-0.033493042	
1740741021857	-0.01083374	
1740741021858	-0.0048828125	
1740741021859	-0.0064849854	
1740741021860	0.008087158	
1740741021861	0.005264282	
1740741021862	-2.2888184E-4	
1740741021863	0.0045776367	
1740741021864	-0.001449585	
1740741021865	3.0517578E-4	
1740741021866	0.0090789795	
1740741021867	0.005645752	
1740741021868	0.0049591064	
1740741021869	0.008621216	
1740741021870	0.0059509277	
1740741021871	0.003967285	
1740741021872	0.0010681152	
1740741021873	0.0031280518	
1740741021874	0.0061798096	
1740741021875	-3.0517578E-4	
1740741021876	0.002670288	
1740741021877	0.0048065186	
1740741021878	-0.0018310547	
1740741021879	-0.005340576	
1740741021880	-0.0032043457	
1740741021881	0.0023651123	
1740741021882	-7.6293945E-4	
1740741021883	-1.5258789E-4	
1740741021884	0.0038909912	
1740741021885	-0.003967285	
1740741021886	-0.004196167	
1740741021887	-0.0011444092	
1740741021888	-0.0019836426	
1740741021889	-0.0021362305	
1740741021890	-0.0051879883	
1740741021891	-0.0030517578	
1740741021892	-0.0012969971	
1740741021893	3.8146973E-4	
1740741021894	0.0035095215	
1740741021895	-0.0011444092	
1740741021896	7.6293945E-5	
1740741021897	0.0035858154	
1740741021898	-7.6293945E-4	
1740741021899	-0.004196167	
1740741021900	0.001449585	
1740741021901	0.0073242188	
1740741021902	0.0033569336	
1740741021903	0.001373291	
1740741021904	-6.1035156E-4	
1740741021905	0.0	
1740741021906	0.004501343	
1740741021907	0.0025939941	
1740741021908	0.0012207031	
1740741021909	-0.006866455	
1740741021910	-0.014419556	
1740741021911	-0.0073242188	
1740741021912	-0.0016021729	
1740741021913	-0.0019836426	
1740741021914	-0.0016021729	
1740741021915	0.0037384033	
1740741021916	0.009460449	
1740741021917	0.014801025	
1740741021918	0.02357483	
1740741021919	0.028152466	
1740741021920	0.008773804	
1740741021921	-0.023651123	
1740741021922	-0.034103394	
1740741021923	-0.035095215	
1740741021924	-0.045318604	
1740741021925	-0.027618408	
1740741021926	0.009536743	
1740741021927	0.005645752	
1740741021928	-0.009384155	
1740741021929	-0.007858276	
1740741021930	-0.0023651123	
1740741021931	0.01625061	
1740741021932	0.026168823	
1740741021933	0.038909912	
1740741021934	0.048294067	
1740741021935	0.036468506	
1740741021936	0.02494812	
1740741021937	0.0032806396	
1740741021938	-0.014266968	
1740741021939	-0.02243042	
1740741021940	-0.02494812	
1740741021941	-0.0062561035	
1740741021942	0.016174316	
1740741021943	0.017318726	
1740741021944	-0.021820068	
1740741021945	-0.049591064	
1740741021946	-0.021743774	
1740741021947	0.0038909912	
1740741021948	0.0061798096	
1740741021949	0.0073242188	
1740741021950	0.020523071	
1740741021951	0.022964478	
1740741021952	-0.0012207031	
1740741021953	-0.017929077	
1740741021954	-0.02067566	
1740741021955	-0.015945435	
1740741021956	-0.022964478	
1740741021957	-0.016479492	
1740741021958	0.008087158	
1740741021959	0.0037384033	
1740741021960	0.004272461	
1740741021961	0.017242432	
1740741021962	0.023040771	
1740741021963	0.021972656	
1740741021964	0.0074768066	
1740741021965	0.0046539307	
1740741021966	0.0051116943	
1740741021967	-0.002670288	
1740741021968	-1.5258789E-4	
1740741021969	-0.0063323975	
1740741021970	-0.010070801	
1740741021971	-0.008621216	
1740741021972	-0.012741089	
1740741021973	-0.002746582	
1740741021974	0.0048828125	
1740741021975	0.0036621094	
1740741021976	0.0029754639	
1740741021977	7.6293945E-5	
1740741021978	-0.0051879883	
1740741021979	-0.0074768066	
1740741021980	-0.0061035156	
1740741021981	-0.010070801	
1740741021982	-0.005340576	
1740741021983	0.0074005127	
1740741021984	0.008773804	
1740741021985	0.004501343	
1740741021986	0.0020599365	
1740741021987	-0.0019836426	
1740741021988	0.0032043457	
1740741021989	0.012741089	
1740741021990	0.009002686	
1740741021991	0.008773804	
1740741021992	0.011367798	
1740741021993	0.0050354004	
1740741021994	-0.0025177002	
1740741021995	-0.009002686	
1740741021996	-0.023345947	
1740741021997	-0.036239624	
1740741021998	-0.0340271	
1740741021999	-0.024414062	
1740741022000	0.002670288	
1740741022001	0.026168823	
1740741022002	0.0132751465	
1740741022003	0.0118255615	
1740741022004	0.025863647	
1740741022005	0.01083374	
1740741022006	-0.009613037	
1740741022007	-0.00869751	
1740741022008	0.004501343	
1740741022009	0.017318726	
1740741022010	0.01411438	
1740741022011	0.0049591064	
1740741022012	0.00579834	
1740741022013	0.0047302246	
1740741022014	0.0064849854	
1740741022015	0.015411377	
1740741022016	0.018692017	
1740741022017	0.0119018555	
1740741022018	-6.866455E-4	
1740741022019	-0.009841919	
1740741022020	-0.012359619	
1740741022021	-0.0074005127	
1740741022022	-0.010757446	
1740741022023	-0.025482178	
1740741022024	-0.050735474	
1740741022025	-0.08354187	
1740741022026	-0.088653564	
1740741022027	-0.050735474	
1740741022028	0.0018310547	
1740741022029	0.042877197	
1740741022030	0.08522034	
1740741022031	0.11100769	
1740741022032	0.10147095	
1740741022033	0.052947998	
1740741022034	-0.008621216	
1740741022035	-0.034866333	
1740741022036	-0.020980835	
1740741022037	0.013504028	
1740741022038	0.008392334	
1740741022039	-0.014266968	
1740741022040	-0.019836426	
1740741022041	-0.036849976	
1740741022042	-0.030975342	
1740741022043	-0.017242432	
1740741022044	-0.019302368	
1740741022045	-5.340576E-4	
1740741022046	0.027999878	
1740741022047	0.023803711	
1740741022048	-8.392334E-4	
1740741022049	-0.004348755	
1740741022050	-0.0118255615	
1740741022051	-0.026245117	
1740741022052	-0.014266968	
1740741022053	0.0033569336	
1740741022054	0.0077056885	
1740741022055	0.004119873	
1740741022056	-9.1552734E-4	
1740741022057	0.0045776367	
1740741022058	0.0016021729	
1740741022059	-0.012130737	
1740741022060	-0.022125244	
1740741022061	-0.028152466	
1740741022062	-0.008010864	
1740741022063	0.007095337	
1740741022064	-0.00289917	
1740741022065	0.0077056885	
1740741022066	0.027160645	
1740741022067	0.024261475	
1740741022068	0.021362305	
1740741022069	0.01914978	
1740741022070	0.012359619	
1740741022071	0.013656616	
1740741022072	0.012130737	
1740741022073	0.008087158	
1740741022074	0.017623901	
1740741022075	0.012359619	
1740741022076	-0.013885498	
1740741022077	-0.021057129	
1740741022078	-0.0022125244	
1740741022079	0.0075531006	
1740741022080	-0.010604858	
1740741022081	-0.03173828	
1740741022082	-0.026168823	
1740741022083	0.0025939941	
1740741022084	0.009536743	
1740741022085	-0.015182495	
1740741022086	-0.025482178	
1740741022087	-0.016403198	
1740741022088	-0.0046539307	
1740741022089	0.001449585	
1740741022090	0.008850098	
1740741022091	0.019760132	
1740741022092	0.010604858	
1740741022093	-0.00289917	
1740741022094	-0.017700195	
1740741022095	0.0023651123	
1740741022096	0.04295349	
1740741022097	0.021057129	
1740741022098	0.0032043457	
1740741022099	0.008468628	
1740741022100	-0.008544922	
1740741022101	-0.016479492	
1740741022102	-0.009002686	
1740741022103	0.008621216	
1740741022104	0.014343262	
1740741022105	-0.010147095	
1740741022106	-0.040283203	
1740741022107	-0.041122437	
1740741022108	-0.010910034	
1740741022109	0.008239746	
1740741022110	0.0032043457	
1740741022111	0.0019073486	
1740741022112	0.008621216	
1740741022113	0.013961792	
1740741022114	0.020980835	
1740741022115	0.020370483	
1740741022116	0.004196167	
1740741022117	-0.0023651123	
1740741022118	7.6293945E-4	
1740741022119	0.004119873	
1740741022120	0.0062561035	
1740741022121	0.0019836426	
1740741022122	0.0032806396	
1740741022123	0.004348755	
1740741022124	-9.918213E-4	
1740741022125	-0.005569458	
1740741022126	-0.0046539307	
1740741022127	-0.0045776367	
1740741022128	-0.011749268	
1740741022129	-0.007095337	
1740741022130	0.0012207031	
1740741022131	0.009231567	
1740741022132	0.020446777	
1740741022133	0.005722046	
1740741022134	-0.007858276	
1740741022135	-0.014953613	
1740741022136	-0.031051636	
1740741022137	-0.021820068	
1740741022138	-0.0017547607	
1740741022139	0.0038146973	
1740741022140	0.0031280518	
1740741022141	-0.004501343	
1740741022142	-0.014419556	
1740741022143	-0.004272461	
1740741022144	0.00831604	
1740741022145	0.0064849854	
1740741022146	0.011444092	
1740741022147	0.012359619	
1740741022148	0.013656616	
1740741022149	-0.0030517578	
1740741022150	-0.023422241	
1740741022151	0.009765625	
1740741022152	0.021820068	
1740741022153	0.012130737	
1740741022154	0.025177002	
1740741022155	0.0038909912	
1740741022156	-0.0104522705	
1740741022157	7.6293945E-5	
1740741022158	-0.009765625	
1740741022159	-0.0018310547	
1740741022160	0.018463135	
1740741022161	0.018615723	
1740741022162	0.012817383	
1740741022163	-0.011291504	
1740741022164	-0.037765503	
1740741022165	-0.022964478	
1740741022166	0.004119873	
1740741022167	-0.0038909912	
1740741022168	-0.02357483	
1740741022169	-0.023269653	
1740741022170	-0.005493164	
1740741022171	0.02357483	
1740741022172	0.021591187	
1740741022173	0.0032806396	
1740741022174	0.011672974	
1740741022175	0.010986328	
1740741022176	0.0064086914	
1740741022177	0.008468628	
1740741022178	0.0062561035	
1740741022179	0.004196167	
1740741022180	-0.014038086	
1740741022181	-0.030593872	
1740741022182	-0.03768921	
1740741022183	-0.05340576	
1740741022184	-0.06690979	
1740741022185	-0.04524231	
1740741022186	0.016479492	
1740741022187	0.06828308	
1740741022188	0.08758545	
1740741022189	0.07911682	
1740741022190	0.0541687	
1740741022191	0.007019043	
1740741022192	-0.028076172	
1740741022193	-0.0065612793	
1740741022194	0.013809204	
1740741022195	-0.016174316	
1740741022196	-0.054092407	
1740741022197	-0.038375854	
1740741022198	-0.014724731	
1740741022199	-0.0090789795	
1740741022200	0.029144287	
1740741022201	0.04081726	
1740741022202	0.012054443	
1740741022203	-3.0517578E-4	
1740741022204	0.0032806396	
1740741022205	-0.0019073486	
1740741022206	-0.023422241	
1740741022207	-0.021514893	
1740741022208	-0.005874634	
1740741022209	-0.008468628	
1740741022210	-0.016555786	
1740741022211	-0.014266968	
1740741022212	0.004501343	
1740741022213	0.018844604	
1740741022214	0.009994507	
1740741022215	0.0051116943	
1740741022216	0.010375977	
1740741022217	-0.0065612793	
1740741022218	-0.01701355	
1740741022219	0.0024414062	
1740741022220	0.010986328	
1740741022221	0.0050354004	
1740741022222	0.0025939941	
1740741022223	-0.0032806396	
1740741022224	-0.001449585	
1740741022225	0.017852783	
1740741022226	0.01914978	
1740741022227	0.0022125244	
1740741022228	-0.0029754639	
1740741022229	-0.0029754639	
1740741022230	-0.011978149	
1740741022231	-0.022277832	
1740741022232	-0.01411438	
1740741022233	-0.012512207	
1740741022234	-0.015029907	
1740741022235	0.004348755	
1740741022236	0.015335083	
1740741022237	0.017089844	
1740741022238	0.013427734	
1740741022239	2.2888184E-4	
1740741022240	-0.0010681152	
1740741022241	0.00793457	
1740741022242	0.01876831	
1740741022243	0.029449463	
1740741022244	0.03074646	
1740741022245	0.0038146973	
1740741022246	-0.037384033	
1740741022247	-0.058441162	
1740741022248	-0.051727295	
1740741022249	-0.015640259	
1740741022250	0.004043579	
1740741022251	-0.0048828125	
1740741022252	0.018081665	
1740741022253	0.021438599	
1740741022254	-0.005569458	
1740741022255	-0.0050354004	
1740741022256	-0.014038086	
1740741022257	-0.0090789795	
1740741022258	0.020523071	
1740741022259	0.026397705	
1740741022260	0.022125244	
1740741022261	0.018005371	
1740741022262	0.028152466	
1740741022263	0.031204224	
1740741022264	-0.0012969971	
1740741022265	-0.019607544	
1740741022266	-0.024642944	
1740741022267	-0.03425598	
1740741022268	-0.012054443	
1740741022269	0.017166138	
1740741022270	0.019378662	
1740741022271	0.001449585	
1740741022272	-0.014190674	
1740741022273	-0.01586914	
1740741022274	-0.021514893	
1740741022275	-0.0064849854	
1740741022276	0.014038086	
1740741022277	0.010757446	
1740741022278	0.013046265	
1740741022279	0.00869751	
1740741022280	0.005569458	
1740741022281	0.001449585	
1740741022282	-0.014877319	
1740741022283	-0.02204895	
1740741022284	-0.022888184	
1740741022285	-0.010528564	
1740741022286	-1.5258789E-4	
1740741022287	7.6293945E-4	
1740741022288	0.010604858	
1740741022289	0.005874634	
1740741022290	-0.0012969971	
1740741022291	0.006942749	
1740741022292	0.009994507	
1740741022293	0.0063323975	
1740741022294	0.0032806396	
1740741022295	0.0038909912	
1740741022296	0.002746582	
1740741022297	0.0018310547	
1740741022298	8.392334E-4	
1740741022299	0.0022888184	
1740741022300	0.007171631	
1740741022301	0.002670288	
1740741022302	-0.0031280518	
1740741022303	-0.010757446	
1740741022304	-0.012130737	
1740741022305	-0.001373291	
1740741022306	0.0051879883	
1740741022307	0.0024414062	
1740741022308	-0.0049591064	
1740741022309	-0.004272461	
1740741022310	0.004501343	
1740741022311	0.012130737	
1740741022312	0.017166138	
1740741022313	0.010223389	
1740741022314	-0.010681152	
1740741022315	-0.027542114	
1740741022316	-0.021514893	
1740741022317	-0.0022888184	
1740741022318	0.012130737	
1740741022319	0.018920898	
1740741022320	0.013809204	
1740741022321	0.008544922	
1740741022322	-0.0074005127	
1740741022323	-0.02670288	
1740741022324	-0.012664795	
1740741022325	-0.0051116943	
1740741022326	-0.011749268	
1740741022327	-0.0018310547	
1740741022328	0.0048828125	
1740741022329	-0.0012207031	
1740741022330	-0.010375977	
1740741022331	0.008468628	
1740741022332	0.04295349	
1740741022333	0.037612915	
1740741022334	0.011672974	
1740741022335	-0.011672974	
1740741022336	-0.021133423	
1740741022337	-0.017089844	
1740741022338	-0.027618408	
1740741022339	-0.042495728	
1740741022340	-0.036621094	
1740741022341	0.0035858154	
1740741022342	0.03517151	
1740741022343	0.030822754	
1740741022344	0.004501343	
1740741022345	-0.025787354	
1740741022346	0.0077056885	
1740741022347	0.03540039	
1740741022348	0.009307861	
1740741022349	0.008926392	
1740741022350	0.012359619	
1740741022351	0.012893677	
1740741022352	0.017089844	
1740741022353	0.013427734	
1740741022354	0.009536743	
1740741022355	0.0036621094	
1740741022356	0.01373291	
1740741022357	0.014419556	
1740741022358	-0.0029754639	
1740741022359	-0.00869751	
1740741022360	-0.020828247	
1740741022361	-0.057525635	
1740741022362	-0.08972168	
1740741022363	-0.07850647	
1740741022364	-0.034103394	
1740741022365	0.015945435	
1740741022366	0.061416626	
1740741022367	0.09391785	
1740741022368	0.092544556	
1740741022369	0.046157837	
1740741022370	-0.0016021729	
1740741022371	-0.02067566	
1740741022372	-0.0340271	
1740741022373	-0.050048828	
1740741022374	-0.055618286	
1740741022375	-0.026855469	
1740741022376	0.0017547607	
1740741022377	-0.010299683	
1740741022378	-0.01701355	
1740741022379	-0.013961792	
1740741022380	-0.0019073486	
1740741022381	0.016326904	
1740741022382	0.014038086	
1740741022383	0.025482178	
1740741022384	0.029373169	
1740741022385	0.0075531006	
1740741022386	-7.6293945E-5	
1740741022387	-0.0046539307	
1740741022388	-0.002746582	
1740741022389	0.00831604	
1740741022390	0.011367798	
1740741022391	0.007171631	
1740741022392	0.0025177002	
1740741022393	0.0075531006	
1740741022394	0.00289917	
1740741022395	6.866455E-4	
1740741022396	0.004348755	
1740741022397	-0.004348755	
1740741022398	4.5776367E-4	
1740741022399	0.0011444092	
1740741022400	-0.00289917	
1740741022401	-2.2888184E-4	
1740741022402	-0.001373291	
1740741022403	9.918213E-4	
1740741022404	-0.004272461	
1740741022405	-0.005493164	
1740741022406	-0.0015258789	
1740741022407	-0.0011444092	
1740741022408	0.0074005127	
1740741022409	-0.0012969971	
1740741022410	-0.015106201	
1740741022411	-0.021514893	
1740741022412	-0.02609253	
1740741022413	-0.0023651123	
1740741022414	0.008850098	
1740741022415	0.002670288	
1740741022416	0.016021729	
1740741022417	0.010910034	
1740741022418	9.1552734E-4	
1740741022419	0.008544922	
1740741022420	0.0077056885	
1740741022421	0.00793457	
1740741022422	0.00869751	
1740741022423	-0.0018310547	
1740741022424	-0.021591187	
1740741022425	-0.025024414	
1740741022426	-0.0034332275	
1740741022427	0.0032806396	
1740741022428	0.0037384033	
1740741022429	0.013427734	
1740741022430	0.010375977	
1740741022431	-0.0016021729	
1740741022432	-0.007247925	
1740741022433	-0.004119873	
1740741022434	-0.0035095215	
1740741022435	-0.008621216	
1740741022436	-0.010986328	
1740741022437	6.1035156E-4	
1740741022438	0.014801025	
1740741022439	0.012969971	
1740741022440	0.010604858	
1740741022441	0.016708374	
1740741022442	0.020599365	
1740741022443	0.0047302246	
1740741022444	-0.015487671	
1740741022445	-0.024108887	
1740741022446	-0.024108887	
1740741022447	-0.012817383	
1740741022448	-0.022888184	
1740741022449	-0.023422241	
1740741022450	0.0050354004	
1740741022451	-0.0036621094	
1740741022452	-0.0074005127	
1740741022453	0.00541687	
1740741022454	0.0032043457	
1740741022455	0.020065308	
1740741022456	0.03074646	
1740741022457	0.029907227	
1740741022458	0.02861023	
1740741022459	0.028076172	
1740741022460	0.030212402	
1740741022461	0.011062622	
1740741022462	-0.008163452	
1740741022463	-0.005493164	
1740741022464	-0.015029907	
1740741022465	-0.021743774	
1740741022466	-0.018310547	
1740741022467	-0.04005432	
1740741022468	-0.04547119	
1740741022469	-0.0132751465	
1740741022470	0.007171631	
1740741022471	0.00579834	
1740741022472	-0.002670288	
1740741022473	-0.006790161	
1740741022474	-2.2888184E-4	
1740741022475	0.0020599365	
1740741022476	-6.866455E-4	
1740741022477	0.012054443	
1740741022478	0.019683838	
1740741022479	0.009307861	
1740741022480	0.0045776367	
1740741022481	0.0064849854	
1740741022482	0.0062561035	
1740741022483	0.0047302246	
1740741022484	0.005569458	
1740741022485	-2.2888184E-4	
1740741022486	-0.0074005127	
1740741022487	-0.0017547607	
1740741022488	4.5776367E-4	
1740741022489	-0.004272461	
1740741022490	-0.0016021729	
1740741022491	0.010604858	
1740741022492	0.008544922	
1740741022493	-0.013961792	
1740741022494	-0.03692627	
1740741022495	-0.038375854	
1740741022496	-0.012969971	
1740741022497	0.009155273	
1740741022498	0.0132751465	
1740741022499	0.007095337	
1740741022500	0.0073242188	
1740741022501	0.015487671	
1740741022502	0.011672974	
1740741022503	0.011291504	
1740741022504	0.011749268	
1740741022505	0.005264282	
1740741022506	0.007171631	
1740741022507	0.008468628	
1740741022508	6.866455E-4	
1740741022509	-0.0024414062	
1740741022510	-6.1035156E-4	
1740741022511	0.0029754639	
1740741022512	0.002746582	
1740741022513	-0.004425049	
1740741022514	-0.008773804	
1740741022515	-0.0064086914	
1740741022516	0.0025939941	
1740741022517	-0.0032043457	
1740741022518	-0.010223389	
1740741022519	-0.004119873	
1740741022520	-0.0061798096	
1740741022521	-0.0075531006	
1740741022522	-0.005340576	
1740741022523	-0.0038909912	
1740741022524	-0.006866455	
1740741022525	-0.011367798	
1740741022526	-9.918213E-4	
1740741022527	0.010528564	
1740741022528	0.01876831	
1740741022529	0.03173828	
1740741022530	0.023269653	
1740741022531	0.0021362305	
1740741022532	-0.0022888184	
1740741022533	-0.011367798	
1740741022534	-0.027389526	
1740741022535	-0.024719238	
1740741022536	-0.016479492	
1740741022537	-0.037384033	
1740741022538	-0.037002563	
1740741022539	0.005264282	
1740741022540	0.024795532	
1740741022541	0.030822754	
1740741022542	0.018615723	
1740741022543	7.6293945E-4	
1740741022544	0.009231567	
1740741022545	0.0048828125	
1740741022546	0.0074768066	
1740741022547	0.02067566	
1740741022548	0.025863647	
1740741022549	0.026168823	
1740741022550	0.0059509277	
1740741022551	-0.0034332275	
1740741022552	0.0048828125	
1740741022553	-0.0016021729	
1740741022554	-0.0062561035	
1740741022555	-0.0066375732	
1740741022556	-0.006713867	
1740741022557	-0.0045776367	
1740741022558	-0.008926392	
1740741022559	-0.028686523	
1740741022560	-0.052490234	
1740741022561	-0.055389404	
1740741022562	-0.0554657	
1740741022563	-0.0118255615	
1740741022564	0.080947876	
1740741022565	0.085372925	
1740741022566	0.026855469	
1740741022567	-0.0025939941	
1740741022568	-0.02166748	
1740741022569	-0.012664795	
1740741022570	0.004348755	
1740741022571	-0.001449585	
1740741022572	-0.006942749	
1740741022573	-0.01876831	
1740741022574	-0.037994385	
1740741022575	-0.042266846	
1740741022576	-0.022201538	
1740741022577	0.017242432	
1740741022578	0.04081726	
1740741022579	0.054397583	
1740741022580	0.082092285	
1740741022581	0.0743103	
1740741022582	0.028762817	
1740741022583	0.0046539307	
1740741022584	6.866455E-4	
1740741022585	-0.020980835	
1740741022586	-0.03692627	
1740741022587	-0.03883362	
1740741022588	-0.031204224	
1740741022589	-0.01914978	
1740741022590	-0.033416748	
1740741022591	-0.034866333	
1740741022592	-0.009155273	
1740741022593	3.8146973E-4	
1740741022594	-0.006866455	
1740741022595	-0.014343262	
1740741022596	-0.015182495	
1740741022597	-0.0034332275	
1740741022598	0.00579834	
1740741022599	6.866455E-4	
1740741022600	3.8146973E-4	
1740741022601	0.00831604	
1740741022602	0.011291504	
1740741022603	0.013580322	
1740741022604	0.015640259	
1740741022605	0.0146484375	
1740741022606	0.012207031	
1740741022607	0.013122559	
1740741022608	0.021896362	
1740741022609	0.021896362	
1740741022610	0.008926392	
1740741022611	-9.1552734E-4	
1740741022612	0.0051116943	
1740741022613	0.0046539307	
1740741022614	-0.018844604	
1740741022615	-0.04272461	
1740741022616	-0.04310608	
1740741022617	-0.028915405	
1740741022618	-0.023117065	
1740741022619	-0.009384155	
1740741022620	0.013122559	
1740741022621	0.027618408	
1740741022622	0.03578186	
1740741022623	0.032043457	
1740741022624	0.030136108	
1740741022625	0.024719238	
1740741022626	0.002670288	
1740741022627	-0.0119018555	
1740741022628	-0.0064849854	
1740741022629	-0.0019836426	
1740741022630	-0.0074768066	
1740741022631	-0.010070801	
1740741022632	-0.0074768066	
1740741022633	-0.009536743	
1740741022634	-0.009536743	
1740741022635	-0.008239746	
1740741022636	-0.007019043	
1740741022637	-0.0022888184	
1740741022638	-0.006942749	
1740741022639	-0.010375977	
1740741022640	-0.0051879883	
1740741022641	0.001449585	
1740741022642	0.0077056885	
1740741022643	0.006790161	
1740741022644	0.0061035156	
1740741022645	0.0066375732	
1740741022646	0.004119873	
1740741022647	0.0046539307	
1740741022648	0.0016021729	
1740741022649	2.2888184E-4	
1740741022650	0.0016784668	
1740741022651	-7.6293945E-5	
1740741022652	0.001449585	
1740741022653	-0.0019073486	
1740741022654	-0.0063323975	
1740741022655	-2.2888184E-4	
1740741022656	-3.8146973E-4	
1740741022657	-0.0024414062	
1740741022658	0.0022888184	
1740741022659	9.918213E-4	
1740741022660	-7.6293945E-5	
1740741022661	0.0	
1740741022662	-0.0046539307	
1740741022663	-0.0035858154	
1740741022664	-0.009841919	
1740741022665	-0.009384155	
1740741022666	0.0063323975	
1740741022667	0.0011444092	
1740741022668	-0.005493164	
1740741022669	-0.0035095215	
1740741022670	0.004043579	
1740741022671	0.012741089	
1740741022672	0.009841919	
1740741022673	0.017166138	
1740741022674	0.0146484375	
1740741022675	0.0047302246	
1740741022676	-0.009918213	
1740741022677	-0.034866333	
1740741022678	-0.020751953	
1740741022679	-0.008087158	
1740741022680	-0.0146484375	
1740741022681	0.009536743	
1740741022682	0.015563965	
1740741022683	0.0063323975	
1740741022684	0.015029907	
1740741022685	0.015563965	
1740741022686	0.013656616	
1740741022687	0.008163452	
1740741022688	-0.0074768066	
1740741022689	-0.021972656	
1740741022690	-0.015487671	
1740741022691	-0.0023651123	
1740741022692	-0.002746582	
1740741022693	-0.010986328	
1740741022694	-0.020980835	
1740741022695	-0.0022125244	
1740741022696	0.021057129	
1740741022697	0.015258789	
1740741022698	0.012130737	
1740741022699	0.013504028	
1740741022700	0.009994507	
1740741022701	0.004119873	
1740741022702	-0.0016784668	
1740741022703	-0.0064086914	
1740741022704	-0.0049591064	
1740741022705	0.0033569336	
1740741022706	0.0	
1740741022707	-0.009307861	
1740741022708	-0.008621216	
1740741022709	0.0032806396	
1740741022710	0.0062561035	
1740741022711	-0.004196167	
1740741022712	-0.0024414062	
1740741022713	5.340576E-4	
1740741022714	0.00289917	
1740741022715	0.005722046	
1740741022716	-0.0023651123	
1740741022717	-0.0030517578	
1740741022718	-0.0015258789	
1740741022719	0.0025177002	
1740741022720	0.010681152	
1740741022721	0.0	
1740741022722	-0.006866455	
1740741022723	-0.012054443	
1740741022724	-0.024261475	
1740741022725	-0.009384155	
1740741022726	0.010528564	
1740741022727	0.011749268	
1740741022728	0.014038086	
1740741022729	0.010757446	
1740741022730	0.0073242188	
1740741022731	0.010223389	
1740741022732	0.0051116943	
1740741022733	-0.014724731	
1740741022734	-0.039138794	
1740741022735	-0.03036499	
1740741022736	-0.012283325	
1740741022737	-0.012207031	
1740741022738	-0.0051116943	
1740741022739	-0.0051879883	
1740741022740	-0.007171631	
1740741022741	0.018310547	
1740741022742	0.03883362	
1740741022743	0.02822876	
1740741022744	0.015335083	
1740741022745	0.00541687	
1740741022746	-0.002746582	
1740741022747	0.0022125244	
1740741022748	0.008163452	
1740741022749	0.013809204	
1740741022750	0.012512207	
1740741022751	0.0035095215	
1740741022752	-0.0020599365	
1740741022753	-0.005874634	
1740741022754	-0.006866455	
1740741022755	-0.009536743	
1740741022756	-0.012054443	
1740741022757	-0.024642944	
1740741022758	-0.039596558	
1740741022759	-0.019683838	
1740741022760	0.011138916	
1740741022761	0.016326904	
1740741022762	0.017623901	
1740741022763	0.01991272	
1740741022764	0.014343262	
1740741022765	0.005340576	
1740741022766	-0.010147095	
1740741022767	-0.0077056885	
1740741022768	0.0017547607	
1740741022769	-0.0061798096	
1740741022770	-0.0036621094	
1740741022771	-0.0038146973	
1740741022772	-0.01449585	
1740741022773	-0.0032806396	
1740741022774	0.010604858	
1740741022775	0.0046539307	
1740741022776	0.0047302246	
1740741022777	0.007171631	
1740741022778	7.6293945E-4	
1740741022779	-0.0019836426	
1740741022780	-0.0012207031	
1740741022781	0.001373291	
1740741022782	1.5258789E-4	
1740741022783	0.0016784668	
1740741022784	0.004348755	
1740741022785	-0.004425049	
1740741022786	-0.0035858154	
1740741022787	0.0036621094	
1740741022788	0.004119873	
1740741022789	0.010299683	
1740741022790	0.011062622	
1740741022791	0.009307861	
1740741022792	0.005264282	
1740741022793	-0.01373291	
1740741022794	-0.028152466	
1740741022795	-0.03135681	
1740741022796	-0.012741089	
1740741022797	0.0012969971	
1740741022798	-0.005264282	
1740741022799	0.00289917	
1740741022800	0.005493164	
1740741022801	0.0048065186	
1740741022802	0.011978149	
1740741022803	0.017166138	
1740741022804	0.017929077	
1740741022805	0.0104522705	
1740741022806	0.0024414062	
1740741022807	-0.005569458	
1740741022808	6.1035156E-4	
1740741022809	0.002746582	
1740741022810	-0.017166138	
1740741022811	-0.0066375732	
1740741022812	0.015487671	
1740741022813	0.004501343	
1740741022814	-0.0011444092	
1740741022815	-0.014266968	
1740741022816	-0.03593445	
1740741022817	-0.023651123	
1740741022818	-0.0019073486	
1740741022819	-0.005493164	
1740741022820	-0.009918213	
1740741022821	0.0064086914	
1740741022822	0.022125244	
1740741022823	0.032424927	
1740741022824	0.028381348	
1740741022825	0.0074005127	
1740741022826	-0.008163452	
1740741022827	-0.004119873	
1740741022828	0.016937256	
1740741022829	0.014343262	
1740741022830	-0.0035095215	
1740741022831	-0.0020599365	
1740741022832	3.0517578E-4	
1740741022833	-0.004501343	
1740741022834	-0.010757446	
1740741022835	-0.006942749	
1740741022836	-0.008544922	
1740741022837	-0.040664673	
1740741022838	-0.045318604	
1740741022839	0.014572144	
1740741022840	0.047836304	
1740741022841	0.009841919	
1740741022842	-0.025482178	
1740741022843	-0.018081665	
1740741022844	0.0038146973	
1740741022845	-5.340576E-4	
1740741022846	-0.009231567	
1740741022847	0.010681152	
1740741022848	0.016937256	
1740741022849	0.013122559	
1740741022850	0.013809204	
1740741022851	0.008239746	
1740741022852	0.015258789	
1740741022853	0.01586914	
1740741022854	0.0045776367	
1740741022855	0.0012207031	
1740741022856	-0.0036621094	
1740741022857	0.001373291	
1740741022858	0.0016021729	
1740741022859	-0.008544922	
1740741022860	-0.014801025	
1740741022861	-0.026321411	
1740741022862	-0.011062622	
1740741022863	0.0104522705	
1740741022864	-0.0035858154	
1740741022865	-0.004501343	
1740741022866	-3.8146973E-4	
1740741022867	-0.00579834	
1740741022868	0.00793457	
1740741022869	0.007171631	
1740741022870	-0.002822876	
1740741022871	-0.0035095215	
1740741022872	-0.0018310547	
1740741022873	0.008544922	
1740741022874	-3.8146973E-4	
1740741022875	-0.010070801	
1740741022876	-0.0021362305	
1740741022877	-0.006942749	
1740741022878	-0.013046265	
1740741022879	-0.0036621094	
1740741022880	0.008621216	
1740741022881	0.0077819824	
1740741022882	0.010299683	
1740741022883	0.010299683	
1740741022884	-0.010681152	
1740741022885	-0.015792847	
1740741022886	-0.008544922	
1740741022887	0.002822876	
1740741022888	0.020599365	
1740741022889	0.0045776367	
1740741022890	-0.008010864	
1740741022891	0.0036621094	
1740741022892	-8.392334E-4	
1740741022893	5.340576E-4	
1740741022894	0.0076293945	
1740741022895	0.0062561035	
1740741022896	0.0063323975	
1740741022897	0.0020599365	
1740741022898	0.0017547607	
1740741022899	0.0045776367	
1740741022900	-0.0012207031	
1740741022901	-7.6293945E-4	
1740741022902	0.0075531006	
1740741022903	0.004043579	
1740741022904	-6.1035156E-4	
1740741022905	-0.0012207031	
1740741022906	-0.008621216	
1740741022907	-0.014419556	
1740741022908	-0.016479492	
1740741022909	-0.012969971	
1740741022910	-0.0063323975	
1740741022911	1.5258789E-4	
1740741022912	0.006866455	
1740741022913	0.0038909912	
1740741022914	6.1035156E-4	
1740741022915	-9.918213E-4	
1740741022916	0.00289917	
1740741022917	0.010910034	
1740741022918	0.004119873	
1740741022919	3.0517578E-4	
1740741022920	0.0022888184	
1740741022921	-0.0010681152	
1740741022922	-4.5776367E-4	
1740741022923	0.0035095215	
1740741022924	0.0030517578	
1740741022925	0.00289917	
1740741022926	-0.0025177002	
1740741022927	-6.866455E-4	
1740741022928	0.0062561035	
1740741022929	0.0074768066	
1740741022930	0.0146484375	
1740741022931	0.0104522705	
1740741022932	-7.6293945E-5	
1740741022933	-0.0066375732	
1740741022934	-0.008621216	
1740741022935	-0.0061035156	
1740741022936	-0.031204224	
1740741022937	-0.06385803	
1740741022938	-0.04096985	
1740741022939	0.0032806396	
1740741022940	0.02319336	
1740741022941	0.034103394	
1740741022942	0.021362305	
1740741022943	-2.2888184E-4	
1740741022944	-0.0035858154	
1740741022945	0.013122559	
1740741022946	0.035247803	
1740741022947	0.033798218	
1740741022948	0.0104522705	
1740741022949	-0.0146484375	
1740741022950	-0.021209717	
1740741022951	-0.0010681152	
1740741022952	0.012435913	
1740741022953	-0.0029754639	
1740741022954	-0.016021729	
1740741022955	-0.011062622	
1740741022956	0.0048828125	
1740741022957	0.0025939941	
1740741022958	-0.016326904	
1740741022959	-0.009841919	
1740741022960	8.392334E-4	
1740741022961	0.0023651123	
1740741022962	0.006866455	
1740741022963	0.011291504	
1740741022964	0.01411438	
1740741022965	0.0062561035	
1740741022966	-0.0025177002	
1740741022967	-0.010910034	
1740741022968	-0.020065308	
1740741022969	-0.021057129	
1740741022970	-0.016708374	
1740741022971	-0.009613037	
1740741022972	-0.0065612793	
1740741022973	-0.001373291	
1740741022974	0.005493164	
1740741022975	0.004501343	
1740741022976	0.006942749	
1740741022977	0.010757446	
1740741022978	0.0074768066	
1740741022979	0.007858276	
1740741022980	0.0090789795	
1740741022981	0.0118255615	
1740741022982	0.017471313	
1740741022983	0.00831604	
1740741022984	-0.00579834	
1740741022985	-0.005722046	
1740741022986	0.0010681152	
1740741022987	0.0050354004	
1740741022988	5.340576E-4	
1740741022989	-0.0048065186	
1740741022990	-0.0038146973	
1740741022991	5.340576E-4	
1740741022992	0.0	
1740741022993	-0.007858276	
1740741022994	-0.008087158	
1740741022995	-0.0025177002	
1740741022996	-0.0012207031	
1740741022997	0.00289917	
1740741022998	0.004425049	
1740741022999	-0.0046539307	
1740741023000	-0.007019043	
1740741023001	-0.012664795	
1740741023002	-0.018157959	
1740741023003	6.1035156E-4	
1740741023004	0.013961792	
1740741023005	0.015182495	
1740741023006	0.022735596	
1740741023007	0.025863647	
1740741023008	0.01625061	
1740741023009	0.0038146973	
1740741023010	-0.009460449	
1740741023011	-0.02204895	
1740741023012	-0.020904541	
1740741023013	-0.029296875	
1740741023014	-0.038528442	
1740741023015	-0.017852783	
1740741023016	-0.010528564	
1740741023017	-0.0032043457	
1740741023018	0.01663208	
1740741023019	0.018234253	
1740741023020	0.02204895	
1740741023021	0.002822876	
1740741023022	-0.015945435	
1740741023023	0.02319336	
1740741023024	0.039367676	
1740741023025	-0.0064086914	
1740741023026	-0.03753662	
1740741023027	-0.026168823	
1740741023028	7.6293945E-5	
1740741023029	0.014266968	
1740741023030	0.027542114	
1740741023031	0.037002563	
1740741023032	0.00541687	
1740741023033	-0.0022125244	
1740741023034	0.019454956	
1740741023035	0.015029907	
1740741023036	0.008392334	
1740741023037	-0.0076293945	
1740741023038	-0.005569458	
1740741023039	0.0020599365	
1740741023040	-0.018920898	
1740741023041	-0.02281189	
1740741023042	-0.029907227	
1740741023043	-0.020980835	
1740741023044	0.013885498	
1740741023045	0.005493164	
1740741023046	-0.004272461	
1740741023047	0.008621216	
1740741023048	0.004348755	
1740741023049	0.0012207031	
1740741023050	2.2888184E-4	
1740741023051	-0.004272461	
1740741023052	0.002670288	
1740741023053	0.0063323975	
1740741023054	-0.0025177002	
1740741023055	-0.027008057	
1740741023056	-0.050811768	
1740741023057	-0.028305054	
1740741023058	0.01739502	
1740741023059	0.042419434	
1740741023060	0.035324097	
1740741023061	0.0064849854	
1740741023062	-0.0020599365	
1740741023063	0.0048065186	
1740741023064	0.009613037	
1740741023065	0.015487671	
1740741023066	0.007171631	
1740741023067	-0.0030517578	
1740741023068	-0.0022125244	
1740741023069	-0.0031280518	
1740741023070	-0.004348755	
1740741023071	-0.0050354004	
1740741023072	-0.009918213	
1740741023073	-0.016479492	
1740741023074	-0.008621216	
1740741023075	0.0032806396	
1740741023076	0.0025177002	
1740741023077	0.0061035156	
1740741023078	0.003967285	
1740741023079	0.0033569336	
1740741023080	0.011520386	
1740741023081	0.010604858	
1740741023082	0.0074768066	
1740741023083	-0.009613037	
1740741023084	-0.03173828	
1740741023085	-0.03288269	
1740741023086	-0.018310547	
1740741023087	-0.007858276	
1740741023088	0.00793457	
1740741023089	0.041122437	
1740741023090	0.037765503	
1740741023091	-0.0030517578	
1740741023092	-0.018692017	
1740741023093	-0.029220581	
1740741023094	-0.041427612	
1740741023095	-0.01838684	
1740741023096	0.010528564	
1740741023097	0.040740967	
1740741023098	0.05203247	
1740741023099	-2.2888184E-4	
1740741023100	-0.022506714	
1740741023101	0.008087158	
1740741023102	0.003967285	
1740741023103	0.012664795	
1740741023104	0.030212402	
1740741023105	0.018997192	
1740741023106	0.03250122	
1740741023107	0.038223267	
1740741023108	-0.023956299	
1740741023109	-0.1007843	
1740741023110	-0.09361267	
1740741023111	-0.039520264	
1740741023112	0.013198853	
1740741023113	0.07827759	
1740741023114	0.083999634	
1740741023115	0.051574707	
1740741023116	0.018157959	
1740741023117	-0.0077056885	
1740741023118	0.0010681152	
1740741023119	-0.022354126	
1740741023120	-0.034713745	
1740741023121	-0.018920898	
1740741023122	-0.026168823	
1740741023123	-0.02960205	
1740741023124	-0.032806396	
1740741023125	-0.01663208	
1740741023126	-0.0032806396	
1740741023127	-0.016860962	
1740741023128	-0.003967285	
1740741023129	2.2888184E-4	
1740741023130	-0.01411438	
1740741023131	0.004501343	
1740741023132	0.009002686	
1740741023133	-0.0064086914	
1740741023134	0.010147095	
1740741023135	0.034179688	
1740741023136	0.039520264	
1740741023137	0.028762817	
1740741023138	0.018310547	
1740741023139	0.013656616	
1740741023140	6.866455E-4	
1740741023141	-0.0035095215	
1740741023142	-0.0032806396	
1740741023143	-0.008773804	
1740741023144	-0.0037384033	
1740741023145	-0.0031280518	
1740741023146	-0.0032043457	
1740741023147	0.0019836426	
1740741023148	-0.003967285	
1740741023149	-0.0030517578	
1740741023150	0.004043579	
1740741023151	-9.918213E-4	
1740741023152	-0.007095337	
1740741023153	-0.010910034	
1740741023154	-0.0146484375	
1740741023155	-0.012893677	
1740741023156	-0.005264282	
1740741023157	0.0021362305	
1740741023158	0.0060272217	
1740741023159	0.009918213	
1740741023160	0.008087158	
1740741023161	-7.6293945E-4	
1740741023162	-0.0025177002	
1740741023163	0.0011444092	
1740741023164	0.0019836426	
1740741023165	8.392334E-4	
1740741023166	-0.0063323975	
1740741023167	-0.010528564	
1740741023168	-9.918213E-4	
1740741023169	0.0074768066	
1740741023170	3.8146973E-4	
1740741023171	-0.015640259	
1740741023172	-0.027313232	
1740741023173	-0.009918213	
1740741023174	0.029907227	
1740741023175	0.032043457	
1740741023176	0.0146484375	
1740741023177	0.012741089	
1740741023178	-7.6293945E-5	
1740741023179	-0.008468628	
1740741023180	-0.008087158	
1740741023181	-0.004348755	
1740741023182	0.005722046	
1740741023183	0.012283325	
1740741023184	0.01411438	
1740741023185	0.009765625	
1740741023186	-0.0037384033	
1740741023187	-0.02281189	
1740741023188	-0.009307861	
1740741023189	0.006790161	
1740741023190	-0.0060272217	
1740741023191	0.016326904	
1740741023192	0.020751953	
1740741023193	-0.021057129	
1740741023194	-0.03677368	
1740741023195	-0.046463013	
1740741023196	-0.048217773	
1740741023197	-0.015945435	
1740741023198	0.0046539307	
1740741023199	0.0066375732	
1740741023200	0.021438599	
1740741023201	0.034103394	
1740741023202	0.028152466	
1740741023203	0.015563965	
1740741023204	0.015029907	
1740741023205	0.022506714	
1740741023206	0.018463135	
1740741023207	0.0104522705	
1740741023208	0.0050354004	
1740741023209	-0.0022125244	
1740741023210	-0.0064086914	
1740741023211	-0.010299683	
1740741023212	-0.008468628	
1740741023213	-0.00793457	
1740741023214	-0.010528564	
1740741023215	-0.0035858154	
1740741023216	-0.0045776367	
1740741023217	-0.006866455	
1740741023218	-0.0046539307	
1740741023219	-7.6293945E-4	
1740741023220	0.010757446	
1740741023221	0.019073486	
1740741023222	0.020751953	
1740741023223	-2.2888184E-4	
1740741023224	-0.028686523	
1740741023225	-0.03440857	
1740741023226	-0.0365448	
1740741023227	-0.052337646	
1740741023228	-0.052261353	
1740741023229	-0.014724731	
1740741023230	0.008392334	
1740741023231	0.012664795	
1740741023232	0.02532959	
1740741023233	0.035705566	
1740741023234	0.053482056	
1740741023235	0.04776001	
1740741023236	0.02494812	
1740741023237	0.027542114	
1740741023238	0.032958984	
1740741023239	0.029525757	
1740741023240	0.020065308	
1740741023241	0.013656616	
1740741023242	0.013198853	
1740741023243	0.01121521	
1740741023244	-0.017166138	
1740741023245	-0.104522705	
1740741023246	-0.15922546	
1740741023247	-0.10185242	
1740741023248	-0.017318726	
1740741023249	0.04196167	
1740741023250	0.06858826	
1740741023251	0.053329468	
1740741023252	0.023956299	
1740741023253	-0.0015258789	
1740741023254	-0.0090789795	
1740741023255	-0.020065308	
1740741023256	-0.026245117	
1740741023257	0.002746582	
1740741023258	0.02822876	
1740741023259	0.04257202	
1740741023260	0.06713867	
1740741023261	0.075531006	
1740741023262	0.05317688	
1740741023263	0.0077819824	
1740741023264	-0.024414062	
1740741023265	-0.033950806	
1740741023266	-0.04310608	
1740741023267	-0.036315918	
1740741023268	-0.027694702	
1740741023269	-0.03036499	
1740741023270	-0.029754639	
1740741023271	-0.030593872	
1740741023272	-0.018310547	
1740741023273	-0.0074005127	
1740741023274	-0.0061035156	
1740741023275	0.001373291	
1740741023276	0.0016784668	
1740741023277	9.918213E-4	
1740741023278	0.0051879883	
1740741023279	0.0073242188	
1740741023280	0.013809204	
1740741023281	0.01663208	
1740741023282	0.013885498	
1740741023283	0.011749268	
1740741023284	0.0048828125	
1740741023285	-9.1552734E-4	
1740741023286	7.6293945E-5	
1740741023287	0.005645752	
1740741023288	0.007019043	
1740741023289	0.004272461	
1740741023290	0.008239746	
1740741023291	0.0077056885	
1740741023292	0.0	
1740741023293	-0.0022125244	
1740741023294	6.1035156E-4	
1740741023295	0.0045776367	
1740741023296	0.0051116943	
1740741023297	-0.0010681152	
1740741023298	-0.0038909912	
1740741023299	0.001373291	
1740741023300	2.2888184E-4	
1740741023301	-0.0059509277	
1740741023302	-0.006866455	
1740741023303	-0.002822876	
1740741023304	3.0517578E-4	
1740741023305	-0.0015258789	
1740741023306	-0.0020599365	
1740741023307	-0.0023651123	
1740741023308	-0.0016784668	
1740741023309	-9.918213E-4	
1740741023310	-0.0032806396	
1740741023311	-0.0016784668	
1740741023312	-9.1552734E-4	
1740741023313	-0.0031280518	
1740741023314	-7.6293945E-4	
1740741023315	-4.5776367E-4	
1740741023316	-0.0016021729	
1740741023317	-0.0010681152	
1740741023318	-0.0031280518	
1740741023319	-0.002746582	
1740741023320	0.0012969971	
1740741023321	0.0020599365	
1740741023322	0.0012969971	
1740741023323	0.007858276	
1740741023324	0.0064849854	
1740741023325	3.0517578E-4	
1740741023326	0.0049591064	
1740741023327	-0.0010681152	
1740741023328	-0.008621216	
1740741023329	4.5776367E-4	
1740741023330	0.008926392	
1740741023331	0.015182495	
1740741023332	0.011367798	
1740741023333	0.007171631	
1740741023334	-0.010375977	
1740741023335	-0.072021484	
1740741023336	-0.0769043	
1740741023337	-0.010070801	
1740741023338	0.0074768066	
1740741023339	0.015106201	
1740741023340	0.04776001	
1740741023341	0.049743652	
1740741023342	0.04257202	
1740741023343	0.037078857	
1740741023344	0.017852783	
1740741023345	-0.018615723	
1740741023346	-0.04837036	
1740741023347	-0.036087036	
1740741023348	-0.009536743	
1740741023349	0.027618408	
1740741023350	0.05470276	
1740741023351	0.03288269	
1740741023352	-0.01876831	
1740741023353	-0.06011963	
1740741023354	-0.0440979	
1740741023355	-0.0021362305	
1740741023356	0.007095337	
1740741023357	-0.006866455	
1740741023358	-0.004272461	
1740741023359	0.009613037	
1740741023360	0.01373291	
1740741023361	0.0018310547	
1740741023362	-0.028381348	
1740741023363	-0.007019043	
1740741023364	0.038604736	
1740741023365	0.019989014	
1740741023366	-0.011978149	
1740741023367	-0.013656616	
1740741023368	0.010299683	
1740741023369	0.024414062	
1740741023370	0.01953125	
1740741023371	0.023422241	
1740741023372	0.0033569336	
1740741023373	-0.017547607	
1740741023374	-0.008010864	
1740741023375	-0.0025939941	
1740741023376	-0.008163452	
1740741023377	-0.025405884	
1740741023378	-0.03883362	
1740741023379	-0.022735596	
1740741023380	0.0010681152	
1740741023381	0.0066375732	
1740741023382	0.00289917	
1740741023383	-0.00541687	
1740741023384	-0.0061798096	
1740741023385	0.004501343	
1740741023386	0.0064849854	
1740741023387	0.0118255615	
1740741023388	0.015640259	
1740741023389	0.006866455	
1740741023390	0.0036621094	
1740741023391	0.004043579	
1740741023392	0.006942749	
1740741023393	0.0064849854	
1740741023394	0.002670288	
1740741023395	0.00289917	
1740741023396	-0.0051879883	
1740741023397	-0.010070801	
1740741023398	-0.0024414062	
1740741023399	0.0012969971	
1740741023400	7.6293945E-5	
1740741023401	0.0033569336	
1740741023402	0.004196167	
1740741023403	0.0	
1740741023404	-0.002822876	
1740741023405	-0.0036621094	
1740741023406	-0.0035858154	
1740741023407	-0.0048065186	
1740741023408	-0.008239746	
1740741023409	-0.0132751465	
1740741023410	-0.0059509277	
1740741023411	0.006942749	
1740741023412	0.012207031	
1740741023413	0.017318726	
1740741023414	0.007858276	
1740741023415	0.0020599365	
1740741023416	0.012741089	
1740741023417	0.0074005127	
1740741023418	-0.0031280518	
1740741023419	8.392334E-4	
1740741023420	0.00869751	
1740741023421	0.004119873	
1740741023422	-0.013961792	
1740741023423	-0.03173828	
1740741023424	-0.025177002	
1740741023425	-0.0077056885	
1740741023426	-0.0048065186	
1740741023427	0.00289917	
1740741023428	0.006942749	
1740741023429	0.0016784668	
1740741023430	-0.004196167	
1740741023431	-0.0077056885	
1740741023432	0.008239746	
1740741023433	0.015335083	
1740741023434	0.010681152	
1740741023435	0.009613037	
1740741023436	0.002670288	
1740741023437	0.0035858154	
1740741023438	-0.0032806396	
1740741023439	-0.0077819824	
1740741023440	0.0024414062	
1740741023441	-0.009536743	
1740741023442	-0.01991272	
1740741023443	-0.01411438	
1740741023444	-0.00289917	
1740741023445	0.023880005	
1740741023446	0.028686523	
1740741023447	0.010604858	
1740741023448	2.2888184E-4	
1740741023449	-0.030822754	
1740741023450	-0.06599426	
1740741023451	-0.045394897	
1740741023452	0.004043579	
1740741023453	0.0340271	
1740741023454	0.07392883	
1740741023455	0.111083984	
1740741023456	0.09933472	
1740741023457	0.037078857	
1740741023458	-0.047607422	
1740741023459	-0.06958008	
1740741023460	-0.025939941	
1740741023461	-0.015258789	
1740741023462	-0.036010742	
1740741023463	-0.036010742	
1740741023464	-0.026397705	
1740741023465	-0.023269653	
1740741023466	-0.012512207	
1740741023467	0.0012969971	
1740741023468	-0.0038146973	
1740741023469	-0.0104522705	
1740741023470	-0.011367798	
1740741023471	-0.014572144	
1740741023472	-0.010147095	
1740741023473	-0.0018310547	
1740741023474	0.010681152	
1740741023475	0.01739502	
1740741023476	0.015258789	
1740741023477	0.015182495	
1740741023478	0.011978149	
1740741023479	0.010604858	
1740741023480	0.00869751	
1740741023481	0.009613037	
1740741023482	0.009536743	
1740741023483	0.0032043457	
1740741023484	0.006942749	
1740741023485	0.008163452	
1740741023486	0.002822876	
1740741023487	0.004425049	
1740741023488	0.0037384033	
1740741023489	-7.6293945E-5	
1740741023490	-0.0010681152	
1740741023491	-0.0016021729	
1740741023492	-0.0022125244	
1740741023493	-0.0030517578	
1740741023494	-0.004043579	
1740741023495	1.5258789E-4	
1740741023496	0.0025177002	
1740741023497	-3.8146973E-4	
1740741023498	-0.0022125244	
1740741023499	-0.008926392	
1740741023500	-0.012054443	
1740741023501	-0.0062561035	
1740741023502	-0.0035858154	
1740741023503	-0.004425049	
1740741023504	-0.0048065186	
1740741023505	-7.6293945E-4	
1740741023506	0.006713867	
1740741023507	0.0032043457	
1740741023508	-0.0023651123	
1740741023509	4.5776367E-4	
1740741023510	0.002670288	
1740741023511	-0.0012207031	
1740741023512	-0.003967285	
1740741023513	0.0030517578	
1740741023514	0.0035095215	
1740741023515	-8.392334E-4	
1740741023516	-0.0030517578	
1740741023517	-3.8146973E-4	
1740741023518	0.009918213	
1740741023519	0.0066375732	
1740741023520	-0.001373291	
1740741023521	0.0022125244	
1740741023522	0.004119873	
1740741023523	0.0051116943	
1740741023524	0.020828247	
1740741023525	0.02532959	
1740741023526	-0.023422241	
1740741023527	-0.0667572	
1740741023528	-0.05760193	
1740741023529	-0.041732788	
1740741023530	-0.0104522705	
1740741023531	0.032348633	
1740741023532	0.03829956	
1740741023533	0.007095337	
1740741023534	0.013656616	
1740741023535	0.039901733	
1740741023536	0.0066375732	
1740741023537	-0.0035095215	
1740741023538	0.016860962	
1740741023539	0.0061035156	
1740741023540	0.0104522705	
1740741023541	0.022506714	
1740741023542	0.017929077	
1740741023543	0.0017547607	
1740741023544	-0.012969971	
1740741023545	-0.00579834	
1740741023546	-0.004119873	
1740741023547	-0.00831604	
1740741023548	-0.003967285	
1740741023549	6.866455E-4	
1740741023550	0.006942749	
1740741023551	0.0010681152	
1740741023552	-0.012893677	
1740741023553	-0.02494812	
1740741023554	-0.027236938	
1740741023555	-0.009155273	
1740741023556	6.866455E-4	
1740741023557	-0.00541687	
1740741023558	-0.0037384033	
1740741023559	-0.0015258789	
1740741023560	-8.392334E-4	
1740741023561	0.0029754639	
1740741023562	-3.0517578E-4	
1740741023563	-0.009536743	
1740741023564	-0.018081665	
1740741023565	-0.005874634	
1740741023566	0.01777649	
1740741023567	0.015182495	
1740741023568	0.004119873	
1740741023569	-7.6293945E-5	
1740741023570	-3.8146973E-4	
1740741023571	0.0064849854	
1740741023572	0.0065612793	
1740741023573	0.008087158	
1740741023574	0.009613037	
1740741023575	0.0025939941	
1740741023576	0.0032043457	
1740741023577	0.010070801	
1740741023578	0.0050354004	
1740741023579	-0.001373291	
1740741023580	6.1035156E-4	
1740741023581	-0.0022888184	
1740741023582	-0.00793457	
1740741023583	-0.00541687	
1740741023584	0.0062561035	
1740741023585	0.0090789795	
1740741023586	0.0019836426	
1740741023587	0.0035095215	
1740741023588	0.005493164	
1740741023589	0.006713867	
1740741023590	-3.0517578E-4	
1740741023591	-0.014953613	
1740741023592	-0.007171631	
1740741023593	-0.0061035156	
1740741023594	-0.01701355	
1740741023595	-0.014801025	
1740741023596	-0.013656616	
1740741023597	-0.0031280518	
1740741023598	0.00793457	
1740741023599	0.0046539307	
1740741023600	0.0016784668	
1740741023601	-0.0016784668	
1740741023602	0.0020599365	
1740741023603	0.0064849854	
1740741023604	-0.0010681152	
1740741023605	-3.8146973E-4	
1740741023606	0.0032806396	
1740741023607	0.0012207031	
1740741023608	0.0035095215	
1740741023609	0.00793457	
1740741023610	0.007019043	
1740741023611	-6.1035156E-4	
1740741023612	-0.0030517578	
1740741023613	0.0017547607	
1740741023614	0.006713867	
1740741023615	0.001449585	
1740741023616	-0.0037384033	
1740741023617	0.001373291	
1740741023618	-0.0022125244	
1740741023619	-0.0035858154	
1740741023620	0.0032043457	
1740741023621	0.0015258789	
1740741023622	7.6293945E-4	
1740741023623	7.6293945E-4	
1740741023624	-0.002670288	
1740741023625	-0.002822876	
1740741023626	-0.004501343	
1740741023627	-0.005645752	
1740741023628	-0.0032043457	
1740741023629	-0.0021362305	
1740741023630	-7.6293945E-4	
1740741023631	0.0016784668	
1740741023632	0.0031280518	
1740741023633	0.0012969971	
1740741023634	-1.5258789E-4	
1740741023635	0.0	
1740741023636	-6.866455E-4	
1740741023637	-2.2888184E-4	
1740741023638	0.0016784668	
1740741023639	0.0077056885	
1740741023640	0.007095337	
1740741023641	0.00541687	
1740741023642	0.010070801	
1740741023643	-3.8146973E-4	
1740741023644	-0.009307861	
1740741023645	-0.0119018555	
1740741023646	-0.024871826	
1740741023647	-0.019454956	
1740741023648	7.6293945E-5	
1740741023649	-0.005722046	
1740741023650	-0.012207031	
1740741023651	8.392334E-4	
1740741023652	0.0051879883	
1740741023653	0.010604858	
1740741023654	0.022583008	
1740741023655	0.023803711	
1740741023656	0.025558472	
1740741023657	0.0075531006	
1740741023658	-0.0059509277	
1740741023659	0.016708374	
1740741023660	0.009460449	
1740741023661	-0.02456665	
1740741023662	-0.034561157	
1740741023663	-0.012130737	
1740741023664	0.010757446	
1740741023665	-6.1035156E-4	
1740741023666	0.0035858154	
1740741023667	0.010147095	
1740741023668	-0.018539429	
1740741023669	-0.030059814	
1740741023670	-0.021057129	
1740741023671	-0.004119873	
1740741023672	0.010070801	
1740741023673	0.0074005127	
1740741023674	0.009613037	
1740741023675	0.010986328	
1740741023676	0.008544922	
1740741023677	0.00831604	
1740741023678	0.009307861	
1740741023679	0.013809204	
1740741023680	0.008239746	
1740741023681	0.0077819824	
1740741023682	0.009231567	
1740741023683	0.002746582	
1740741023684	0.004119873	
1740741023685	0.0049591064	
1740741023686	0.0019836426	
1740741023687	-0.0063323975	
1740741023688	-0.0035095215	
1740741023689	0.005493164	
1740741023690	-0.009460449	
1740741023691	-0.022125244	
1740741023692	-0.0315094	
1740741023693	-0.04043579	
1740741023694	-0.017318726	
1740741023695	-0.0025177002	
1740741023696	-0.0063323975	
1740741023697	0.019302368	
1740741023698	0.038223267	
1740741023699	0.017242432	
1740741023700	-0.017700195	
1740741023701	-0.021362305	
1740741023702	0.01625061	
1740741023703	0.023803711	
1740741023704	3.8146973E-4	
1740741023705	-0.016860962	
1740741023706	-0.03250122	
1740741023707	-0.020141602	
1740741023708	0.008850098	
1740741023709	0.027236938	
1740741023710	0.023803711	
1740741023711	0.008850098	
1740741023712	0.005493164	
1740741023713	0.010910034	
1740741023714	0.0104522705	
1740741023715	-0.004501343	
1740741023716	0.0051116943	
1740741023717	0.021057129	
1740741023718	0.0048065186	
1740741023719	-0.0010681152	
1740741023720	-6.866455E-4	
1740741023721	-0.0031280518	
1740741023722	-0.0038146973	
1740741023723	-0.013809204	
1740741023724	-0.014801025	
1740741023725	-0.009613037	
1740741023726	-0.00831604	
1740741023727	-0.007171631	
1740741023728	-0.005264282	
1740741023729	-0.0061798096	
1740741023730	-0.0047302246	
1740741023731	-0.0011444092	
1740741023732	-0.0022888184	
1740741023733	-9.1552734E-4	
1740741023734	-3.0517578E-4	
1740741023735	-0.0030517578	
1740741023736	-6.866455E-4	
1740741023737	0.0034332275	
1740741023738	-3.8146973E-4	
1740741023739	-0.004348755	
1740741023740	0.0048065186	
1740741023741	0.008468628	
1740741023742	0.0021362305	
1740741023743	0.0051116943	
1740741023744	0.0031280518	
1740741023745	0.004425049	
1740741023746	0.0076293945	
1740741023747	-0.0025939941	
1740741023748	0.002822876	
1740741023749	0.009384155	
1740741023750	0.0019073486	
1740741023751	-0.001373291	
1740741023752	0.0018310547	
1740741023753	0.0051879883	
1740741023754	0.002822876	
1740741023755	0.001449585	
1740741023756	0.001449585	
1740741023757	-0.0016021729	
1740741023758	-0.005569458	
1740741023759	-0.005722046	
1740741023760	-0.0032043457	
1740741023761	-0.001449585	
1740741023762	0.0011444092	
1740741023763	7.6293945E-4	
1740741023764	-0.0036621094	
1740741023765	-0.0049591064	
1740741023766	-0.004348755	
1740741023767	-0.015182495	
1740741023768	-0.037994385	
1740741023769	-0.041046143	
1740741023770	-0.009689331	
1740741023771	0.028305054	
1740741023772	0.058288574	
1740741023773	0.061645508	
1740741023774	0.03112793	
1740741023775	-0.008010864	
1740741023776	-0.024642944	
1740741023777	-0.0065612793	
1740741023778	-0.0059509277	
1740741023779	-0.020370483	
1740741023780	-0.0012207031	
1740741023781	0.0146484375	
1740741023782	0.006713867	
1740741023783	-0.002822876	
1740741023784	-0.01083374	
1740741023785	-0.01586914	
1740741023786	-0.013885498	
1740741023787	-0.015792847	
1740741023788	-0.014038086	
1740741023789	0.0020599365	
1740741023790	0.0038146973	
1740741023791	-5.340576E-4	
1740741023792	0.0066375732	
1740741023793	0.0048828125	
1740741023794	0.0031280518	
1740741023795	0.007019043	
1740741023796	0.0049591064	
1740741023797	0.004272461	
1740741023798	0.005340576	
1740741023799	0.0020599365	
1740741023800	-0.0011444092	
1740741023801	-0.0012207031	
1740741023802	0.003967285	
1740741023803	0.007171631	
1740741023804	0.0012969971	
1740741023805	-0.0011444092	
1740741023806	0.0036621094	
1740741023807	0.0018310547	
1740741023808	-4.5776367E-4	
1740741023809	-0.0012969971	
1740741023810	-0.004272461	
1740741023811	-0.0033569336	
1740741023812	-0.001373291	
1740741023813	1.5258789E-4	
1740741023814	-1.5258789E-4	
1740741023815	2.2888184E-4	
1740741023816	-0.0018310547	
1740741023817	-0.0019073486	
1740741023818	-8.392334E-4	
1740741023819	-8.392334E-4	
1740741023820	0.00289917	
1740741023821	-6.1035156E-4	
1740741023822	0.0010681152	
1740741023823	0.004425049	
1740741023824	0.0019836426	
1740741023825	0.001449585	
1740741023826	-0.0037384033	
1740741023827	-0.0032806396	
1740741023828	-0.0012207031	
1740741023829	-0.004272461	
1740741023830	-0.0038909912	
1740741023831	6.1035156E-4	
1740741023832	5.340576E-4	
1740741023833	-0.0036621094	
1740741023834	0.0038909912	
1740741023835	0.016937256	
1740741023836	0.022888184	
1740741023837	0.02128601	
1740741023838	0.024642944	
1740741023839	0.018997192	
1740741023840	-0.02128601	
1740741023841	-0.05493164	
1740741023842	-0.04600525	
1740741023843	-0.03250122	
1740741023844	-0.052871704	
1740741023845	-0.08338928	
1740741023846	-0.07293701	
1740741023847	-0.020904541	
1740741023848	0.040664673	
1740741023849	0.083618164	
1740741023850	0.07926941	
1740741023851	0.058898926	
1740741023852	0.05783081	
1740741023853	0.05279541	
1740741023854	0.013504028	
1740741023855	-0.045928955	
1740741023856	-0.05958557	
1740741023857	-0.016860962	
1740741023858	0.030593872	
1740741023859	0.06401062	
1740741023860	0.08026123	
1740741023861	0.06278992	
1740741023862	0.01701355	
1740741023863	-0.013046265	
1740741023864	-0.02746582	
1740741023865	-0.043640137	
1740741023866	-0.041732788	
1740741023867	-0.027618408	
1740741023868	-0.027999878	
1740741023869	-0.036697388	
1740741023870	-0.0315094	
1740741023871	-0.027770996	
1740741023872	-0.027923584	
1740741023873	-0.015258789	
1740741023874	-0.011291504	
1740741023875	-0.010223389	
1740741023876	-0.004196167	
1740741023877	-0.005264282	
1740741023878	-0.0017547607	
1740741023879	0.005569458	
1740741023880	0.01121521	
1740741023881	0.009002686	
1740741023882	0.006866455	
1740741023883	0.012130737	
1740741023884	0.01159668	
1740741023885	0.011138916	
1740741023886	0.010757446	
1740741023887	0.009841919	
1740741023888	0.01411438	
1740741023889	0.014724731	
1740741023890	0.012283325	
1740741023891	0.010299683	
1740741023892	0.005264282	
1740741023893	6.1035156E-4	
1740741023894	0.0019836426	
1740741023895	0.0051116943	
1740741023896	0.002670288	
1740741023897	0.0011444092	
1740741023898	0.0029754639	
1740741023899	0.0032806396	
1740741023900	-7.6293945E-4	
1740741023901	-0.0064086914	
1740741023902	-0.005264282	
1740741023903	-0.007171631	
1740741023904	-0.008392334	
1740741023905	-0.0066375732	
1740741023906	-0.008621216	
1740741023907	-0.0035095215	
1740741023908	-0.0025177002	
1740741023909	-0.0032806396	
1740741023910	4.5776367E-4	
1740741023911	-0.0015258789	
1740741023912	-0.0017547607	
1740741023913	-5.340576E-4	
1740741023914	9.1552734E-4	
1740741023915	6.866455E-4	
1740741023916	-0.0031280518	
1740741023917	3.8146973E-4	
1740741023918	0.004119873	
1740741023919	0.0021362305	
1740741023920	0.0019836426	
1740741023921	6.866455E-4	
1740741023922	-0.0015258789	
1740741023923	-0.008087158	
1740741023924	-0.009384155	
1740741023925	0.0016784668	
1740741023926	0.0018310547	
1740741023927	-0.0019836426	
1740741023928	-9.918213E-4	
1740741023929	-0.0025177002	
1740741023930	0.001449585	
1740741023931	0.006866455	
1740741023932	0.0066375732	
1740741023933	0.008926392	
1740741023934	0.0119018555	
1740741023935	0.005722046	
1740741023936	-0.012969971	
1740741023937	-0.03753662	
1740741023938	-0.021514893	
1740741023939	0.021438599	
1740741023940	0.026168823	
1740741023941	0.015182495	
1740741023942	0.0030517578	
1740741023943	-0.0034332275	
1740741023944	0.0038146973	
1740741023945	1.5258789E-4	
1740741023946	0.0074005127	
1740741023947	0.017623901	
1740741023948	0.005264282	
1740741023949	-0.0048828125	
1740741023950	-0.013427734	
1740741023951	-0.022354126	
1740741023952	-0.016403198	
1740741023953	-0.00793457	
1740741023954	-0.0034332275	
1740741023955	0.001373291	
1740741023956	0.00289917	
1740741023957	0.0035858154	
1740741023958	0.004348755	
1740741023959	0.0060272217	
1740741023960	0.00541687	
1740741023961	-4.5776367E-4	
1740741023962	0.007858276	
1740741023963	0.0076293945	
1740741023964	-0.017929077	
1740741023965	-0.025100708	
1740741023966	-0.02029419	
1740741023967	-0.012817383	
1740741023968	0.0012969971	
1740741023969	0.0045776367	
1740741023970	0.0033569336	
1740741023971	0.0061035156	
1740741023972	0.012283325	
1740741023973	0.016326904	
1740741023974	0.017318726	
1740741023975	0.018157959	
1740741023976	0.012741089	
1740741023977	0.0064849854	
1740741023978	0.00541687	
1740741023979	0.0038146973	
1740741023980	-0.0012969971	
1740741023981	-0.0048828125	
1740741023982	-9.1552734E-4	
1740741023983	0.005264282	
1740741023984	0.011749268	
1740741023985	0.021896362	
1740741023986	0.015563965	
1740741023987	-0.019302368	
1740741023988	-0.057907104	
1740741023989	-0.063705444	
1740741023990	-0.03555298	
1740741023991	-0.020141602	
1740741023992	-0.02029419	
1740741023993	0.026779175	
1740741023994	0.0718689	
1740741023995	0.036239624	
1740741023996	0.0077056885	
1740741023997	0.00289917	
1740741023998	-0.023651123	
1740741023999	-0.016174316	
1740741024000	0.0073242188	
1740741024001	0.0063323975	
1740741024002	0.0075531006	
1740741024003	-0.015716553	
1740741024004	-0.0970459	
1740741024005	-0.14564514	
1740741024006	-0.06782532	
1740741024007	0.030441284	
1740741024008	0.0843811	
1740741024009	0.1512146	
1740741024010	0.14030457	
1740741024011	0.06484985	
1740741024012	0.027389526	
1740741024013	0.0064086914	
1740741024014	-0.011062622	
1740741024015	-0.019073486	
1740741024016	7.6293945E-5	
1740741024017	0.0074005127	
1740741024018	-0.021057129	
1740741024019	-0.029449463	
1740741024020	-0.030441284	
1740741024021	-0.04081726	
1740741024022	-0.03768921	
1740741024023	-0.024795532	
1740741024024	-0.018157959	
1740741024025	-0.0050354004	
1740741024026	0.0036621094	
1740741024027	-0.0024414062	
1740741024028	1.5258789E-4	
1740741024029	-0.0016784668	
1740741024030	-0.002822876	
1740741024031	0.002822876	
1740741024032	-9.918213E-4	
1740741024033	-0.0018310547	
1740741024034	-0.0035095215	
1740741024035	-0.0045776367	
1740741024036	0.0061035156	
1740741024037	0.005874634	
1740741024038	0.0025177002	
1740741024039	0.0074768066	
1740741024040	0.00579834	
1740741024041	0.00541687	
1740741024042	0.004043579	
1740741024043	0.0024414062	
1740741024044	0.005874634	
1740741024045	0.0061798096	
1740741024046	0.0038146973	
1740741024047	9.1552734E-4	
1740741024048	0.0023651123	
1740741024049	0.004348755	
1740741024050	0.0012207031	
1740741024051	-3.8146973E-4	
1740741024052	4.5776367E-4	
1740741024053	5.340576E-4	
1740741024054	1.5258789E-4	
1740741024055	3.8146973E-4	
1740741024056	-0.0038909912	
1740741024057	-0.003967285	
1740741024058	0.0024414062	
1740741024059	-9.1552734E-4	
1740741024060	-0.0038909912	
1740741024061	-5.340576E-4	
1740741024062	-0.0011444092	
1740741024063	0.0020599365	
1740741024064	0.002746582	
1740741024065	-0.004425049	
1740741024066	-0.0023651123	
1740741024067	0.0019073486	
1740741024068	0.0021362305	
1740741024069	0.0037384033	
1740741024070	6.866455E-4	
1740741024071	-0.001449585	
1740741024072	-0.001373291	
1740741024073	-0.0046539307	
1740741024074	-0.0032043457	
1740741024075	0.0010681152	
1740741024076	-6.1035156E-4	
1740741024077	-0.0018310547	
1740741024078	-0.001373291	
1740741024079	-9.918213E-4	
1740741024080	3.8146973E-4	
1740741024081	-6.1035156E-4	
1740741024082	-0.0032043457	
1740741024083	-0.0061798096	
1740741024084	-0.0049591064	
1740741024085	-0.00289917	
1740741024086	4.5776367E-4	
1740741024087	0.005264282	
1740741024088	0.0025177002	
1740741024089	-0.0025177002	
1740741024090	-0.0016021729	
1740741024091	0.0038909912	
1740741024092	0.003967285	
1740741024093	0.004119873	
1740741024094	0.005722046	
1740741024095	-1.5258789E-4	
1740741024096	0.0010681152	
1740741024097	0.0030517578	
1740741024098	-0.0016021729	
1740741024099	0.0037384033	
1740741024100	0.005569458	
1740741024101	6.866455E-4	
1740741024102	0.006942749	
1740741024103	0.009994507	
1740741024104	-0.002822876	
1740741024105	-0.009460449	
1740741024106	-0.00541687	
1740741024107	-0.0038909912	
1740741024108	0.004196167	
1740741024109	0.009002686	
1740741024110	0.0074768066	
1740741024111	0.005874634	
1740741024112	0.0025177002	
1740741024113	0.007247925	
1740741024114	0.016021729	
1740741024115	0.018997192	
1740741024116	-0.0061798096	
1740741024117	-0.0390625	
1740741024118	-0.041885376	
1740741024119	-0.04638672	
1740741024120	-0.048217773	
1740741024121	-0.025787354	
1740741024122	-0.0060272217	
1740741024123	0.003967285	
1740741024124	0.0016021729	
1740741024125	0.008392334	
1740741024126	0.03112793	
1740741024127	0.032348633	
1740741024128	0.023803711	
1740741024129	0.029678345	
1740741024130	0.0289917	
1740741024131	0.012435913	
1740741024132	0.006790161	
1740741024133	0.007095337	
1740741024134	-0.0051879883	
1740741024135	-0.0038909912	
1740741024136	0.005493164	
1740741024137	0.0011444092	
1740741024138	9.918213E-4	
1740741024139	0.0030517578	
1740741024140	2.2888184E-4	
1740741024141	-0.0065612793	
1740741024142	-0.017242432	
1740741024143	-0.006866455	
1740741024144	0.008468628	
1740741024145	-0.011367798	
1740741024146	-0.031433105	
1740741024147	-0.02281189	
1740741024148	-0.012359619	
1740741024149	-0.0012969971	
1740741024150	0.009231567	
1740741024151	0.015182495	
1740741024152	0.025787354	
1740741024153	0.02609253	
1740741024154	0.008621216	
1740741024155	-0.012054443	
1740741024156	-0.023727417	
1740741024157	-0.010757446	
1740741024158	0.010223389	
1740741024159	0.007858276	
1740741024160	0.002670288	
1740741024161	-0.004119873	
1740741024162	-0.022964478	
1740741024163	-0.029296875	
1740741024164	-0.016555786	
1740741024165	-0.001373291	
1740741024166	0.0035095215	
1740741024167	0.008850098	
1740741024168	0.01159668	
1740741024169	0.010147095	
1740741024170	0.012512207	
1740741024171	0.007095337	
1740741024172	0.005569458	
1740741024173	0.0075531006	
1740741024174	0.0032806396	
1740741024175	0.0047302246	
1740741024176	0.004196167	
1740741024177	0.0021362305	
1740741024178	0.0032806396	
1740741024179	-7.6293945E-4	
1740741024180	-0.0025177002	
1740741024181	-0.0034332275	
1740741024182	-0.002670288	
1740741024183	3.8146973E-4	
1740741024184	-0.0012207031	
1740741024185	-9.918213E-4	
1740741024186	-0.0019073486	
1740741024187	0.0019836426	
1740741024188	-6.1035156E-4	
1740741024189	-0.018234253	
1740741024190	-0.018005371	
1740741024191	-0.0038146973	
1740741024192	0.0036621094	
1740741024193	0.0051879883	
1740741024194	0.0016784668	
1740741024195	0.0032806396	
1740741024196	0.011062622	
1740741024197	0.010910034	
1740741024198	0.0011444092	
1740741024199	0.0029754639	
1740741024200	0.015335083	
1740741024201	0.0046539307	
1740741024202	-0.012664795	
1740741024203	-0.015716553	
1740741024204	-0.027160645	
1740741024205	-0.018081665	
1740741024206	0.009460449	
1740741024207	0.0046539307	
1740741024208	0.0010681152	
1740741024209	0.0051879883	
1740741024210	-5.340576E-4	
1740741024211	0.0048828125	
1740741024212	0.00541687	
1740741024213	0.0037384033	
1740741024214	0.006713867	
1740741024215	0.001449585	
1740741024216	4.5776367E-4	
1740741024217	0.0051116943	
1740741024218	0.0024414062	
1740741024219	-0.0021362305	
1740741024220	-0.0010681152	
1740741024221	-3.8146973E-4	
1740741024222	0.0011444092	
1740741024223	9.918213E-4	
1740741024224	1.5258789E-4	
1740741024225	-0.0032806396	
1740741024226	-0.012512207	
1740741024227	-0.0075531006	
1740741024228	0.0012969971	
1740741024229	0.001373291	
1740741024230	0.009384155	
1740741024231	0.015716553	
1740741024232	0.012435913	
1740741024233	0.0066375732	
1740741024234	-0.0030517578	
1740741024235	-0.010986328	
1740741024236	-0.012130737	
1740741024237	-0.0021362305	
1740741024238	0.00579834	
1740741024239	0.011367798	
1740741024240	0.028762817	
1740741024241	0.016937256	
1740741024242	-0.027236938	
1740741024243	-0.063705444	
1740741024244	-0.052490234	
1740741024245	0.0047302246	
1740741024246	0.01411438	
1740741024247	-0.016098022	
1740741024248	-0.015640259	
1740741024249	-0.0022888184	
1740741024250	0.007095337	
1740741024251	0.013885498	
1740741024252	0.031204224	
1740741024253	0.038528442	
1740741024254	0.008239746	
1740741024255	-0.030288696	
1740741024256	-0.04852295	
1740741024257	-0.037841797	
1740741024258	0.010299683	
1740741024259	0.07369995	
1740741024260	0.09933472	
1740741024261	0.0932312	
1740741024262	0.049972534	
1740741024263	-0.0118255615	
1740741024264	-0.02456665	
1740741024265	-0.028076172	
1740741024266	-0.03967285	
1740741024267	-0.026397705	
1740741024268	-0.024414062	
1740741024269	-0.037078857	
1740741024270	-0.03440857	
1740741024271	-0.023269653	
1740741024272	-0.017166138	
1740741024273	-0.0132751465	
1740741024274	-0.0048065186	
1740741024275	-0.004348755	
1740741024276	-0.0066375732	
1740741024277	7.6293945E-4	
1740741024278	6.866455E-4	
1740741024279	-0.0032806396	
1740741024280	-0.0012207031	
1740741024281	0.004196167	
1740741024282	0.011444092	
1740741024283	0.012969971	
1740741024284	0.006942749	
1740741024285	0.0077056885	
1740741024286	0.011291504	
1740741024287	0.007247925	
1740741024288	0.005569458	
1740741024289	0.006790161	
1740741024290	0.0048065186	
1740741024291	0.0038909912	
1740741024292	0.0049591064	
1740741024293	0.005722046	
1740741024294	0.009460449	
1740741024295	0.010986328	
1740741024296	0.0015258789	
1740741024297	-0.004425049	
1740741024298	-0.0015258789	
1740741024299	-0.0011444092	
1740741024300	-0.0023651123	
1740741024301	-0.0035095215	
1740741024302	-6.866455E-4	
1740741024303	-6.1035156E-4	
1740741024304	8.392334E-4	
1740741024305	0.0035095215	
1740741024306	-0.0030517578	
