# OpenSignals Text File Format
# {"00:80:E1:26:9F:85":{"sensor":["EMG"],"device name":"00:80:E1:26:9F:85","column":["timestamp","EMG"],"sync interval":2,"time":"12:10:19","comments":"","keywords":"","device connection":"UNKNOWN00:80:E1:26:9F:85","channels":[0],"date":"2025-02-28","mode":0,"digital IO":[],"firmware version":259,"device":"musclebanplux","position":0,"sampling rate":1000,"label":["EMG"],"resolution":[16],"special":[{}],"sleeve color":["UNKNOWN"]}}
# EndOfHeader
1740741019825	-0.0104522705	
1740741019826	-0.0025177002	
1740741019827	0.0023651123	
1740741019828	0.014572144	
1740741019829	0.021133423	
1740741019830	0.009918213	
1740741019831	-0.0025177002	
1740741019832	-0.006713867	
1740741019833	-0.005569458	
1740741019834	-0.0025939941	
1740741019835	-0.004348755	
1740741019836	-0.008621216	
1740741019837	-0.025558472	
1740741019838	-0.030517578	
1740741019839	-0.06523132	
1740741019840	-0.1714325	
1740741019841	-0.11276245	
1740741019842	0.064086914	
1740741019843	0.14556885	
1740741019844	0.34553528	
1740741019845	0.42686462	
1740741019846	0.18508911	
1740741019847	0.081329346	
1740741019848	0.03425598	
1740741019849	-0.08392334	
1740741019850	-0.09925842	
1740741019851	-0.13175964	
1740741019852	-0.15312195	
1740741019853	-0.1374054	
1740741019854	-0.15335083	
1740741019855	-0.14503479	
1740741019856	-0.122909546	
1740741019857	-0.08148193	
1740741019858	-0.045776367	
1740741019859	-0.027236938	
1740741019860	-0.0132751465	
1740741019861	-0.015258789	
1740741019862	0.0019073486	
1740741019863	0.024032593	
1740741019864	0.04272461	
1740741019865	0.051879883	
1740741019866	0.036315918	
1740741019867	0.03593445	
1740741019868	0.042495728	
1740741019869	0.0440979	
1740741019870	0.04951477	
1740741019871	0.043640137	
1740741019872	0.038986206	
1740741019873	0.028762817	
1740741019874	0.020828247	
1740741019875	0.0289917	
1740741019876	0.019607544	
1740741019877	0.0104522705	
1740741019878	0.016784668	
1740741019879	0.0119018555	
1740741019880	0.0017547607	
1740741019881	0.0020599365	
1740741019882	0.0012969971	
1740741019883	-0.0038909912	
1740741019884	-0.00793457	
1740741019885	-0.015563965	
1740741019886	-0.014343262	
1740741019887	-0.015716553	
1740741019888	-0.03227234	
1740741019889	-0.044784546	
1740741019890	-0.041809082	
1740741019891	-0.02784729	
1740741019892	-0.0022125244	
1740741019893	0.041427612	
1740741019894	0.04310608	
1740741019895	-0.0010681152	
1740741019896	0.0033569336	
1740741019897	0.04837036	
1740741019898	0.041122437	
1740741019899	-0.008468628	
1740741019900	-0.027160645	
1740741019901	-0.024795532	
1740741019902	-0.040512085	
1740741019903	-0.048980713	
1740741019904	-0.034103394	
1740741019905	-0.029373169	
1740741019906	-0.023269653	
1740741019907	-0.009613037	
1740741019908	-0.005264282	
1740741019909	0.003967285	
1740741019910	0.008926392	
1740741019911	0.004501343	
1740741019912	-0.014266968	
1740741019913	-0.032577515	
1740741019914	-0.012588501	
1740741019915	0.02861023	
1740741019916	0.054626465	
1740741019917	0.073776245	
1740741019918	0.06729126	
1740741019919	0.023651123	
1740741019920	0.0	
1740741019921	-0.0019836426	
1740741019922	-0.013656616	
1740741019923	-0.007095337	
1740741019924	-0.0020599365	
1740741019925	-0.0030517578	
1740741019926	0.004348755	
1740741019927	-0.0048828125	
1740741019928	-0.010604858	
1740741019929	-0.005874634	
1740741019930	-0.007247925	
1740741019931	-0.0077056885	
1740741019932	-0.002746582	
1740741019933	-0.0051879883	
1740741019934	-0.012893677	
1740741019935	-0.006866455	
1740741019936	0.0038909912	
1740741019937	0.0065612793	
1740741019938	0.007247925	
1740741019939	0.00289917	
1740741019940	-0.004425049	
1740741019941	-0.014266968	
1740741019942	-0.026626587	
1740741019943	-0.015029907	
1740741019944	0.005874634	
1740741019945	0.0032806396	
1740741019946	0.0023651123	
1740741019947	0.0018310547	
1740741019948	0.008544922	
1740741019949	0.018997192	
1740741019950	0.01121521	
1740741019951	-0.0017547607	
1740741019952	-0.012435913	
1740741019953	-0.009689331	
1740741019954	-0.0064849854	
1740741019955	-0.022354126	
1740741019956	-0.04333496	
1740741019957	-0.02128601	
1740741019958	0.03135681	
1740741019959	0.07484436	
1740741019960	0.10231018	
1740741019961	0.04928589	
1740741019962	-0.017852783	
1740741019963	-0.005645752	
1740741019964	-0.025939941	
1740741019965	-0.045928955	
1740741019966	-0.02571106	
1740741019967	-0.024108887	
1740741019968	-0.022125244	
1740741019969	-0.017929077	
1740741019970	-0.018997192	
1740741019971	-0.023880005	
1740741019972	-0.008163452	
1740741019973	0.023956299	
1740741019974	0.020217896	
1740741019975	0.010604858	
1740741019976	0.017166138	
1740741019977	-0.0047302246	
1740741019978	-0.029678345	
1740741019979	-0.027618408	
1740741019980	-0.021514893	
1740741019981	0.00869751	
1740741019982	0.05142212	
1740741019983	0.061035156	
1740741019984	0.025939941	
1740741019985	-0.0033569336	
1740741019986	0.0022125244	
1740741019987	-0.0011444092	
1740741019988	0.0021362305	
1740741019989	0.01953125	
1740741019990	-4.5776367E-4	
1740741019991	-0.018463135	
1740741019992	-0.011138916	
1740741019993	-0.014572144	
1740741019994	-0.017547607	
1740741019995	-0.01159668	
1740741019996	-0.010375977	
1740741019997	-0.015716553	
1740741019998	-0.021438599	
1740741019999	-0.030899048	
1740741020000	-0.028839111	
1740741020001	-0.009994507	
1740741020002	0.002746582	
1740741020003	0.03677368	
1740741020004	0.07888794	
1740741020005	0.051116943	
1740741020006	8.392334E-4	
1740741020007	-0.01373291	
1740741020008	-0.014266968	
1740741020009	-0.0012207031	
1740741020010	0.0016784668	
1740741020011	-0.0030517578	
1740741020012	0.0022125244	
1740741020013	-0.0020599365	
1740741020014	-6.1035156E-4	
1740741020015	-0.001449585	
1740741020016	-0.021133423	
1740741020017	-0.023422241	
1740741020018	-0.008163452	
1740741020019	-0.0020599365	
1740741020020	0.0016021729	
1740741020021	0.0019836426	
1740741020022	-9.1552734E-4	
1740741020023	0.004348755	
1740741020024	0.0019073486	
1740741020025	0.002746582	
1740741020026	0.006942749	
1740741020027	0.0035095215	
1740741020028	7.6293945E-5	
1740741020029	0.0061798096	
1740741020030	0.009689331	
1740741020031	-0.004501343	
1740741020032	-0.004501343	
1740741020033	0.0038146973	
1740741020034	0.0	
1740741020035	-7.6293945E-5	
1740741020036	-3.0517578E-4	
1740741020037	9.918213E-4	
1740741020038	-8.392334E-4	
1740741020039	-0.002822876	
1740741020040	-0.0016021729	
1740741020041	-0.004043579	
1740741020042	7.6293945E-4	
1740741020043	0.0024414062	
1740741020044	-0.0025177002	
1740741020045	0.0033569336	
1740741020046	0.005340576	
1740741020047	-0.002670288	
1740741020048	-0.0025939941	
1740741020049	2.2888184E-4	
1740741020050	-0.006866455	
1740741020051	-0.009994507	
1740741020052	-0.016479492	
1740741020053	-0.03135681	
1740741020054	-0.030136108	
1740741020055	-0.0060272217	
1740741020056	0.029373169	
1740741020057	0.047912598	
1740741020058	0.054626465	
1740741020059	0.038146973	
1740741020060	0.002670288	
1740741020061	-0.005493164	
1740741020062	-0.015487671	
1740741020063	-0.01663208	
1740741020064	-0.004501343	
1740741020065	-0.014038086	
1740741020066	-0.011749268	
1740741020067	-0.012435913	
1740741020068	-0.018997192	
1740741020069	-0.02456665	
1740741020070	-0.049362183	
1740741020071	-0.04486084	
1740741020072	3.8146973E-4	
1740741020073	0.0554657	
1740741020074	0.109176636	
1740741020075	0.08377075	
1740741020076	-6.866455E-4	
1740741020077	-0.015106201	
1740741020078	-0.01083374	
1740741020079	-0.03303528	
1740741020080	-0.021820068	
1740741020081	-0.020904541	
1740741020082	-0.020523071	
1740741020083	-0.009155273	
1740741020084	-0.02708435	
1740741020085	-0.032348633	
1740741020086	-0.03265381	
1740741020087	-0.017089844	
1740741020088	0.036239624	
1740741020089	0.04547119	
1740741020090	0.0035095215	
1740741020091	0.0051116943	
1740741020092	0.02281189	
1740741020093	0.0022125244	
1740741020094	0.005264282	
1740741020095	0.047531128	
1740741020096	0.046310425	
1740741020097	-0.0146484375	
1740741020098	-0.03265381	
1740741020099	-0.019607544	
1740741020100	-0.03967285	
1740741020101	0.018692017	
1740741020102	0.06538391	
1740741020103	0.016174316	
1740741020104	-0.009689331	
1740741020105	-0.021591187	
1740741020106	-0.025863647	
1740741020107	-0.018615723	
1740741020108	-0.025482178	
1740741020109	-0.024871826	
1740741020110	-0.02670288	
1740741020111	-0.016784668	
1740741020112	-0.005722046	
1740741020113	2.2888184E-4	
1740741020114	0.01083374	
1740741020115	0.0090789795	
1740741020116	0.0051116943	
1740741020117	0.009307861	
1740741020118	0.006942749	
1740741020119	0.009231567	
1740741020120	0.021209717	
1740741020121	0.018310547	
1740741020122	0.012817383	
1740741020123	0.008621216	
1740741020124	0.00289917	
1740741020125	-0.0011444092	
1740741020126	0.0038146973	
1740741020127	-6.1035156E-4	
1740741020128	-0.007019043	
1740741020129	-0.001449585	
1740741020130	-0.0059509277	
1740741020131	-0.0064086914	
1740741020132	-0.0038909912	
1740741020133	-0.0025177002	
1740741020134	5.340576E-4	
1740741020135	-0.005493164	
1740741020136	-0.012741089	
1740741020137	-0.010299683	
1740741020138	-0.0019836426	
1740741020139	0.010910034	
1740741020140	0.02494812	
1740741020141	0.018997192	
1740741020142	-0.0015258789	
1740741020143	-0.003967285	
1740741020144	-0.005569458	
1740741020145	-0.00831604	
1740741020146	-0.007019043	
1740741020147	-0.009307861	
1740741020148	-0.0074005127	
1740741020149	-0.0047302246	
1740741020150	-0.0051116943	
1740741020151	-0.0019073486	
1740741020152	-0.004501343	
1740741020153	-0.011749268	
1740741020154	-0.0049591064	
1740741020155	-0.0016021729	
1740741020156	-0.0022888184	
1740741020157	0.00541687	
1740741020158	0.009460449	
1740741020159	0.009613037	
1740741020160	-0.001449585	
1740741020161	0.0035858154	
1740741020162	0.0077819824	
1740741020163	0.0035858154	
1740741020164	0.0051879883	
1740741020165	-7.6293945E-4	
1740741020166	-0.001373291	
1740741020167	0.0022125244	
1740741020168	0.0038909912	
1740741020169	0.0021362305	
1740741020170	0.0051879883	
1740741020171	0.0032043457	
1740741020172	-0.0020599365	
1740741020173	-0.0030517578	
1740741020174	-0.006942749	
1740741020175	-0.0062561035	
1740741020176	-0.001449585	
1740741020177	-0.0051879883	
1740741020178	-0.0045776367	
1740741020179	-0.0030517578	
1740741020180	-0.0025939941	
1740741020181	0.0036621094	
1740741020182	1.5258789E-4	
1740741020183	-0.0021362305	
1740741020184	0.00289917	
1740741020185	0.003967285	
1740741020186	0.005264282	
1740741020187	0.0010681152	
1740741020188	-3.8146973E-4	
1740741020189	-8.392334E-4	
1740741020190	-0.010910034	
1740741020191	-0.035324097	
1740741020192	-0.045547485	
1740741020193	-0.010604858	
1740741020194	0.025482178	
1740741020195	0.047607422	
1740741020196	0.042800903	
1740741020197	-0.010604858	
1740741020198	0.023803711	
1740741020199	0.08934021	
1740741020200	0.03929138	
1740741020201	0.008544922	
1740741020202	-0.016403198	
1740741020203	-0.048065186	
1740741020204	-0.03326416	
1740741020205	-0.040130615	
1740741020206	-0.03791809	
1740741020207	-0.030593872	
1740741020208	-0.025558472	
1740741020209	-0.014343262	
1740741020210	-0.019226074	
1740741020211	-0.015029907	
1740741020212	-0.013504028	
1740741020213	-0.016326904	
1740741020214	-0.009841919	
1740741020215	0.0031280518	
1740741020216	0.009765625	
1740741020217	0.020370483	
1740741020218	0.04714966	
1740741020219	0.048217773	
1740741020220	0.028457642	
1740741020221	0.019607544	
1740741020222	0.017623901	
1740741020223	0.018539429	
1740741020224	0.012359619	
1740741020225	-0.011367798	
1740741020226	-0.019607544	
1740741020227	-0.0051116943	
1740741020228	0.010986328	
1740741020229	0.010986328	
1740741020230	0.0023651123	
1740741020231	-0.0023651123	
1740741020232	-0.010223389	
1740741020233	-0.009384155	
1740741020234	-0.009002686	
1740741020235	-0.020217896	
1740741020236	-0.020828247	
1740741020237	-0.012588501	
1740741020238	-0.007247925	
1740741020239	-0.0077056885	
1740741020240	-0.02029419	
1740741020241	-0.032424927	
1740741020242	-0.03845215	
1740741020243	-0.016784668	
1740741020244	0.036392212	
1740741020245	0.06752014	
1740741020246	0.07171631	
1740741020247	0.03677368	
1740741020248	-0.0061798096	
1740741020249	-0.0038146973	
1740741020250	0.0049591064	
1740741020251	0.0022125244	
1740741020252	-0.009536743	
1740741020253	-0.021591187	
1740741020254	-0.026779175	
1740741020255	-0.027694702	
1740741020256	-0.030899048	
1740741020257	-0.03173828	
1740741020258	-0.0051116943	
1740741020259	0.01373291	
1740741020260	0.006942749	
1740741020261	-0.0022888184	
1740741020262	0.0022888184	
1740741020263	0.008163452	
1740741020264	-7.6293945E-4	
1740741020265	0.0012207031	
1740741020266	0.010910034	
1740741020267	0.010604858	
1740741020268	0.005722046	
1740741020269	-0.0090789795	
1740741020270	-0.0061798096	
1740741020271	0.0038146973	
1740741020272	0.009613037	
1740741020273	0.026931763	
1740741020274	0.032348633	
1740741020275	0.020217896	
1740741020276	-8.392334E-4	
1740741020277	-0.009155273	
1740741020278	-0.010604858	
1740741020279	-0.013427734	
1740741020280	-0.008926392	
1740741020281	-0.009536743	
1740741020282	-0.0062561035	
1740741020283	0.0051879883	
1740741020284	0.001373291	
1740741020285	-4.5776367E-4	
1740741020286	0.0016784668	
1740741020287	0.0035858154	
1740741020288	-0.011978149	
1740741020289	-0.024719238	
1740741020290	-0.018539429	
1740741020291	-0.011291504	
1740741020292	-0.005645752	
1740741020293	-0.016784668	
1740741020294	-0.04081726	
1740741020295	-0.03616333	
1740741020296	0.01586914	
1740741020297	0.074157715	
1740741020298	0.11528015	
1740741020299	0.08201599	
1740741020300	-0.022506714	
1740741020301	-0.044937134	
1740741020302	-0.021820068	
1740741020303	-0.009002686	
1740741020304	0.03463745	
1740741020305	0.014877319	
1740741020306	-0.037841797	
1740741020307	-0.02128601	
1740741020308	-0.020141602	
1740741020309	-0.032577515	
1740741020310	-0.02067566	
1740741020311	-0.021133423	
1740741020312	-0.012664795	
1740741020313	-0.002746582	
1740741020314	-0.0031280518	
1740741020315	0.0050354004	
1740741020316	0.0031280518	
1740741020317	0.0024414062	
1740741020318	0.0090789795	
1740741020319	0.005340576	
1740741020320	0.00869751	
1740741020321	0.005874634	
1740741020322	-8.392334E-4	
1740741020323	0.008087158	
1740741020324	0.0047302246	
1740741020325	-0.0017547607	
1740741020326	0.0047302246	
1740741020327	0.0063323975	
1740741020328	0.0050354004	
1740741020329	0.00869751	
1740741020330	0.010147095	
1740741020331	0.0023651123	
1740741020332	0.0029754639	
1740741020333	0.0019836426	
1740741020334	0.0025177002	
1740741020335	0.0015258789	
1740741020336	-0.0016784668	
1740741020337	-0.0012969971	
1740741020338	-0.004501343	
1740741020339	-0.0061035156	
1740741020340	-1.5258789E-4	
1740741020341	-0.0021362305	
1740741020342	-0.0048065186	
1740741020343	-0.0037384033	
1740741020344	-0.0049591064	
1740741020345	-0.0048828125	
1740741020346	-0.0051879883	
1740741020347	-0.005493164	
1740741020348	-0.008010864	
1740741020349	-0.00289917	
1740741020350	0.0038909912	
1740741020351	0.007095337	
1740741020352	0.010910034	
1740741020353	6.866455E-4	
1740741020354	-0.0012969971	
1740741020355	0.003967285	
1740741020356	-0.0015258789	
1740741020357	-0.0045776367	
1740741020358	-0.0017547607	
1740741020359	0.0	
1740741020360	0.0019073486	
1740741020361	0.002822876	
1740741020362	-0.009002686	
1740741020363	-0.021133423	
1740741020364	-0.019226074	
1740741020365	-0.0077819824	
1740741020366	0.010147095	
1740741020367	0.021820068	
1740741020368	0.014419556	
1740741020369	0.0036621094	
1740741020370	-0.0038146973	
1740741020371	0.0020599365	
1740741020372	0.008773804	
1740741020373	0.020904541	
1740741020374	0.020217896	
1740741020375	0.0034332275	
1740741020376	-0.01586914	
1740741020377	-0.01663208	
1740741020378	-3.0517578E-4	
1740741020379	-0.010070801	
1740741020380	-0.021591187	
1740741020381	-0.018157959	
1740741020382	-0.017623901	
1740741020383	0.0036621094	
1740741020384	0.028762817	
1740741020385	0.03211975	
1740741020386	0.030212402	
1740741020387	-6.1035156E-4	
1740741020388	-0.026016235	
1740741020389	0.0	
1740741020390	-0.008239746	
1740741020391	-0.039138794	
1740741020392	-0.059814453	
1740741020393	-0.05088806	
1740741020394	-0.005874634	
1740741020395	0.029449463	
1740741020396	0.06828308	
1740741020397	0.058670044	
1740741020398	0.026855469	
1740741020399	0.024414062	
1740741020400	0.037002563	
1740741020401	0.039978027	
1740741020402	0.002746582	
1740741020403	-0.019378662	
1740741020404	-0.034561157	
1740741020405	-0.056381226	
1740741020406	-0.04676819	
1740741020407	-0.056533813	
1740741020408	-0.074157715	
1740741020409	-0.048294067	
1740741020410	0.011291504	
1740741020411	0.07095337	
1740741020412	0.09933472	
1740741020413	0.051651	
1740741020414	-0.01121521	
1740741020415	-0.0051879883	
1740741020416	-0.0077056885	
1740741020417	-0.017929077	
1740741020418	-0.009613037	
1740741020419	-0.02029419	
1740741020420	-0.024032593	
1740741020421	-0.012359619	
1740741020422	0.004272461	
1740741020423	0.0074005127	
1740741020424	0.004043579	
1740741020425	0.007019043	
1740741020426	0.008926392	
1740741020427	0.008773804	
1740741020428	0.0047302246	
1740741020429	0.0050354004	
1740741020430	0.008850098	
1740741020431	0.0025939941	
1740741020432	-0.001373291	
1740741020433	0.001449585	
1740741020434	0.006866455	
1740741020435	0.004043579	
1740741020436	0.0065612793	
1740741020437	0.016555786	
1740741020438	0.0077819824	
1740741020439	-0.0016784668	
1740741020440	-0.001373291	
1740741020441	-0.0038146973	
1740741020442	-0.008010864	
1740741020443	-0.012588501	
1740741020444	-0.021591187	
1740741020445	-0.02456665	
1740741020446	-0.0077056885	
1740741020447	0.001449585	
1740741020448	0.012741089	
1740741020449	0.031967163	
1740741020450	0.020217896	
1740741020451	0.003967285	
1740741020452	-0.0033569336	
1740741020453	-0.01411438	
1740741020454	-0.010147095	
1740741020455	-0.0016784668	
1740741020456	-0.0036621094	
1740741020457	-6.1035156E-4	
1740741020458	0.0021362305	
1740741020459	-0.00289917	
1740741020460	-0.023880005	
1740741020461	-0.033569336	
1740741020462	-0.017318726	
1740741020463	-0.0066375732	
1740741020464	-0.0024414062	
1740741020465	0.0059509277	
1740741020466	0.010223389	
1740741020467	0.011062622	
1740741020468	0.0077056885	
1740741020469	0.0062561035	
1740741020470	0.011749268	
1740741020471	0.009384155	
1740741020472	0.0073242188	
1740741020473	0.009155273	
1740741020474	0.009536743	
1740741020475	0.0020599365	
1740741020476	-5.340576E-4	
1740741020477	0.0019073486	
1740741020478	-6.866455E-4	
1740741020479	-0.0018310547	
1740741020480	-0.0051116943	
1740741020481	0.0012207031	
1740741020482	0.0035858154	
1740741020483	-0.010604858	
1740741020484	-0.029449463	
1740741020485	-0.046691895	
1740741020486	-0.022888184	
1740741020487	0.02418518	
1740741020488	0.051116943	
1740741020489	0.06889343	
1740741020490	0.039978027	
1740741020491	-0.009994507	
1740741020492	-0.013198853	
1740741020493	-0.010375977	
1740741020494	-0.015258789	
1740741020495	-0.011138916	
1740741020496	-0.019836426	
1740741020497	-0.022659302	
1740741020498	-0.015487671	
1740741020499	-0.017700195	
1740741020500	-0.026626587	
1740741020501	-0.030822754	
1740741020502	-0.0074768066	
1740741020503	0.038986206	
1740741020504	0.049209595	
1740741020505	0.013580322	
1740741020506	-3.8146973E-4	
1740741020507	0.00289917	
1740741020508	4.5776367E-4	
1740741020509	0.0011444092	
1740741020510	0.013961792	
1740741020511	0.0617218	
1740741020512	0.07598877	
1740741020513	0.0077819824	
1740741020514	-0.08239746	
1740741020515	-0.15083313	
1740741020516	-0.1247406	
1740741020517	-0.004196167	
1740741020518	-0.004501343	
1740741020519	-0.15472412	
1740741020520	-0.124053955	
1740741020521	0.025024414	
1740741020522	0.11550903	
1740741020523	0.32699585	
1740741020524	0.39657593	
1740741020525	0.17745972	
1740741020526	0.03501892	
1740741020527	-0.024795532	
1740741020528	-0.06492615	
1740741020529	-0.07347107	
1740741020530	-0.08995056	
1740741020531	-0.08880615	
1740741020532	-0.10360718	
1740741020533	-0.10803223	
1740741020534	-0.07621765	
1740741020535	-0.07110596	
1740741020536	-0.06851196	
1740741020537	-0.049209595	
1740741020538	-0.043945312	
1740741020539	-0.0340271	
1740741020540	-0.016479492	
1740741020541	-0.002746582	
1740741020542	0.013809204	
1740741020543	0.021438599	
1740741020544	0.025100708	
1740741020545	0.03326416	
1740741020546	0.034713745	
1740741020547	0.037078857	
1740741020548	0.034561157	
1740741020549	0.023956299	
1740741020550	0.025405884	
1740741020551	0.03303528	
1740741020552	0.03265381	
1740741020553	0.03440857	
1740741020554	0.026168823	
1740741020555	0.01373291	
1740741020556	0.01777649	
1740741020557	0.01083374	
1740741020558	0.0066375732	
1740741020559	0.013961792	
1740741020560	0.005645752	
1740741020561	0.002822876	
1740741020562	-0.0021362305	
1740741020563	-0.0047302246	
1740741020564	-0.004119873	
1740741020565	-0.008544922	
1740741020566	-0.0065612793	
1740741020567	-0.017089844	
1740741020568	-0.020599365	
1740741020569	-0.013809204	
1740741020570	-0.01625061	
1740741020571	-0.016326904	
1740741020572	-0.016098022	
1740741020573	-0.012664795	
1740741020574	-0.009307861	
1740741020575	-0.014877319	
1740741020576	-0.0119018555	
1740741020577	-0.004348755	
1740741020578	-0.0025939941	
1740741020579	-0.0037384033	
1740741020580	5.340576E-4	
1740741020581	-0.0025939941	
1740741020582	-0.0035095215	
1740741020583	-1.5258789E-4	
1740741020584	0.0017547607	
1740741020585	2.2888184E-4	
1740741020586	0.0031280518	
1740741020587	0.0023651123	
1740741020588	0.0038146973	
1740741020589	0.005264282	
1740741020590	0.002746582	
1740741020591	0.0077056885	
1740741020592	0.0037384033	
1740741020593	0.0064849854	
1740741020594	0.0038146973	
1740741020595	-0.001373291	
1740741020596	0.001373291	
1740741020597	-0.002822876	
1740741020598	-0.0046539307	
1740741020599	0.0010681152	
1740741020600	0.004043579	
1740741020601	-0.0012969971	
1740741020602	-0.008239746	
1740741020603	-0.017166138	
1740741020604	-0.01121521	
1740741020605	0.024490356	
1740741020606	0.055923462	
1740741020607	0.0315094	
1740741020608	6.866455E-4	
1740741020609	9.918213E-4	
1740741020610	-0.014343262	
1740741020611	-0.017318726	
1740741020612	-0.009765625	
1740741020613	-0.009994507	
1740741020614	-0.007247925	
1740741020615	-0.009460449	
1740741020616	-0.0146484375	
1740741020617	-0.012130737	
1740741020618	-0.002746582	
1740741020619	-0.009689331	
1740741020620	-0.028762817	
1740741020621	-0.021133423	
1740741020622	0.006713867	
1740741020623	0.020828247	
1740741020624	0.02861023	
1740741020625	0.0415802	
1740741020626	-0.0018310547	
1740741020627	-0.05996704	
1740741020628	-0.021896362	
1740741020629	0.036697388	
1740741020630	0.07522583	
1740741020631	0.09803772	
1740741020632	0.023880005	
1740741020633	-0.029525757	
1740741020634	-0.015106201	
1740741020635	-0.031204224	
1740741020636	-0.038986206	
1740741020637	-0.049209595	
1740741020638	-0.061035156	
1740741020639	-0.032730103	
1740741020640	-0.018005371	
1740741020641	-0.0077819824	
1740741020642	0.039901733	
1740741020643	0.05317688	
1740741020644	0.014953613	
1740741020645	6.866455E-4	
1740741020646	-0.0035858154	
1740741020647	-1.5258789E-4	
1740741020648	-0.010604858	
1740741020649	-0.021209717	
1740741020650	5.340576E-4	
1740741020651	-0.0060272217	
1740741020652	-0.015792847	
1740741020653	0.0011444092	
1740741020654	0.030136108	
1740741020655	0.06530762	
1740741020656	0.057296753	
1740741020657	0.009689331	
1740741020658	-0.01625061	
1740741020659	-0.017318726	
1740741020660	-0.014877319	
1740741020661	-0.009994507	
1740741020662	-0.012588501	
1740741020663	-0.017929077	
1740741020664	-0.019607544	
1740741020665	-0.017166138	
1740741020666	-0.009841919	
1740741020667	-0.010604858	
1740741020668	-0.013885498	
1740741020669	-0.0077056885	
1740741020670	-0.0019073486	
1740741020671	-0.004043579	
1740741020672	-0.0076293945	
1740741020673	0.008239746	
1740741020674	0.012893677	
1740741020675	0.014419556	
1740741020676	0.019989014	
1740741020677	0.0119018555	
1740741020678	0.009918213	
1740741020679	0.008010864	
1740741020680	0.0031280518	
1740741020681	0.008621216	
1740741020682	0.008621216	
1740741020683	0.0051879883	
1740741020684	-0.0012969971	
1740741020685	-0.005340576	
1740741020686	-0.0032043457	
1740741020687	-3.8146973E-4	
1740741020688	-0.002746582	
1740741020689	5.340576E-4	
1740741020690	0.010910034	
1740741020691	0.008850098	
1740741020692	0.0035858154	
1740741020693	-0.0076293945	
1740741020694	-0.01953125	
1740741020695	-0.013809204	
1740741020696	-0.012359619	
1740741020697	-0.009994507	
1740741020698	-0.012130737	
1740741020699	-0.008926392	
1740741020700	0.001449585	
1740741020701	-5.340576E-4	
1740741020702	0.0036621094	
1740741020703	0.0025177002	
1740741020704	-3.0517578E-4	
1740741020705	0.005722046	
1740741020706	0.0064086914	
1740741020707	0.004043579	
1740741020708	0.004272461	
1740741020709	0.010147095	
1740741020710	0.011291504	
1740741020711	0.008010864	
1740741020712	0.0062561035	
1740741020713	-0.0045776367	
1740741020714	-0.023422241	
1740741020715	-0.03501892	
1740741020716	-0.036621094	
1740741020717	-0.020523071	
1740741020718	-5.340576E-4	
1740741020719	0.03112793	
1740741020720	0.045166016	
1740741020721	-0.008087158	
1740741020722	-0.03189087	
1740741020723	0.0025177002	
1740741020724	0.005645752	
1740741020725	0.00541687	
1740741020726	0.011520386	
1740741020727	0.0059509277	
1740741020728	0.013961792	
1740741020729	0.012817383	
1740741020730	0.014343262	
1740741020731	0.016021729	
1740741020732	0.0010681152	
1740741020733	0.0030517578	
1740741020734	-0.0032043457	
1740741020735	-0.005722046	
1740741020736	-0.004272461	
1740741020737	-0.012664795	
1740741020738	-0.0016784668	
1740741020739	-0.0048065186	
1740741020740	-0.005493164	
1740741020741	-0.0011444092	
1740741020742	-6.866455E-4	
1740741020743	-7.6293945E-4	
1740741020744	-0.001449585	
1740741020745	-0.0020599365	
1740741020746	-0.010299683	
1740741020747	-0.0075531006	
1740741020748	4.5776367E-4	
1740741020749	-0.0025939941	
1740741020750	0.00289917	
1740741020751	0.0033569336	
1740741020752	6.1035156E-4	
1740741020753	0.0038909912	
1740741020754	-0.0061798096	
1740741020755	-0.005264282	
1740741020756	-9.918213E-4	
1740741020757	-0.004272461	
1740741020758	0.0019836426	
1740741020759	-3.0517578E-4	
1740741020760	-0.004196167	
1740741020761	-0.0031280518	
1740741020762	-0.0016021729	
1740741020763	0.0031280518	
1740741020764	0.0030517578	
1740741020765	0.0037384033	
1740741020766	-0.0020599365	
1740741020767	-0.0010681152	
1740741020768	0.0016021729	
1740741020769	-6.866455E-4	
1740741020770	0.002670288	
1740741020771	0.0036621094	
1740741020772	0.0012207031	
1740741020773	-7.6293945E-5	
1740741020774	0.004119873	
1740741020775	0.005493164	
1740741020776	-0.0022888184	
1740741020777	3.8146973E-4	
1740741020778	8.392334E-4	
1740741020779	-0.0048065186	
1740741020780	-0.03540039	
1740741020781	-0.065841675	
1740741020782	-0.02960205	
1740741020783	0.036239624	
1740741020784	0.08811951	
1740741020785	0.1108551	
1740741020786	0.050735474	
1740741020787	-0.016555786	
1740741020788	-0.012893677	
1740741020789	-0.026931763	
1740741020790	-0.032043457	
1740741020791	-0.019683838	
1740741020792	-0.028762817	
1740741020793	-0.02204895	
1740741020794	-0.015106201	
1740741020795	-0.012207031	
1740741020796	-0.013504028	
1740741020797	-0.012435913	
1740741020798	-0.0051879883	
1740741020799	-0.00579834	
1740741020800	-0.004348755	
1740741020801	-2.2888184E-4	
1740741020802	0.0030517578	
1740741020803	-0.0016021729	
1740741020804	-0.007095337	
1740741020805	-5.340576E-4	
1740741020806	0.00541687	
1740741020807	0.008926392	
1740741020808	0.026779175	
1740741020809	0.042648315	
1740741020810	0.033721924	
1740741020811	0.005874634	
1740741020812	-0.015106201	
1740741020813	-0.032730103	
1740741020814	-0.03845215	
1740741020815	-0.017471313	
1740741020816	0.023345947	
1740741020817	0.056991577	
1740741020818	0.060653687	
1740741020819	0.031585693	
1740741020820	-0.027618408	
1740741020821	-0.04524231	
1740741020822	-0.031661987	
1740741020823	-0.043563843	
1740741020824	-0.021591187	
1740741020825	-0.009155273	
1740741020826	0.0035095215	
1740741020827	0.06263733	
1740741020828	0.05340576	
1740741020829	0.0061798096	
1740741020830	-0.0074005127	
1740741020831	-0.023040771	
1740741020832	-0.020141602	
1740741020833	-0.015945435	
1740741020834	-0.018157959	
1740741020835	-0.009384155	
1740741020836	-0.019073486	
1740741020837	-0.011978149	
1740741020838	-0.0025939941	
1740741020839	-0.0074768066	
1740741020840	-0.0016784668	
1740741020841	-0.0061035156	
1740741020842	-0.0034332275	
1740741020843	-0.0010681152	
1740741020844	-0.014190674	
1740741020845	0.0011444092	
1740741020846	0.04333496	
1740741020847	0.06706238	
1740741020848	0.022583008	
1740741020849	-0.018692017	
1740741020850	-0.0017547607	
1740741020851	-0.0035858154	
1740741020852	-0.010147095	
1740741020853	-0.0019073486	
1740741020854	-0.010299683	
1740741020855	-0.008544922	
1740741020856	-0.00579834	
1740741020857	7.6293945E-5	
1740741020858	0.0021362305	
1740741020859	-0.01449585	
1740741020860	-0.00541687	
1740741020861	0.017089844	
1740741020862	0.039901733	
1740741020863	0.043182373	
1740741020864	0.010986328	
1740741020865	-0.012512207	
1740741020866	-0.02029419	
1740741020867	-0.02746582	
1740741020868	-0.013427734	
1740741020869	-0.0023651123	
1740741020870	-0.012893677	
1740741020871	-0.009536743	
1740741020872	-0.0074005127	
1740741020873	-0.0047302246	
1740741020874	-0.001373291	
1740741020875	-0.016174316	
1740741020876	-0.0064849854	
1740741020877	0.011520386	
1740741020878	0.010757446	
1740741020879	0.012588501	
1740741020880	0.0023651123	
1740741020881	-0.0077056885	
1740741020882	-0.0066375732	
1740741020883	-0.023422241	
1740741020884	-0.0592041	
1740741020885	-0.05340576	
1740741020886	0.024719238	
1740741020887	0.079422	
1740741020888	0.103530884	
1740741020889	0.086517334	
1740741020890	0.00289917	
1740741020891	-0.018692017	
1740741020892	-0.015563965	
1740741020893	-0.029754639	
1740741020894	-0.019607544	
1740741020895	-0.024414062	
1740741020896	-0.015029907	
1740741020897	-0.0064086914	
1740741020898	-0.02067566	
1740741020899	-0.023727417	
1740741020900	-0.024795532	
1740741020901	-0.020370483	
1740741020902	6.1035156E-4	
1740741020903	0.030059814	
1740741020904	0.029678345	
1740741020905	0.0	
1740741020906	-0.003967285	
1740741020907	0.0016021729	
1740741020908	-0.00289917	
1740741020909	-0.0038909912	
1740741020910	-0.0119018555	
1740741020911	-0.007858276	
1740741020912	0.0059509277	
1740741020913	0.0062561035	
1740741020914	0.0045776367	
1740741020915	-0.013198853	
1740741020916	-0.041809082	
1740741020917	-0.027999878	
1740741020918	0.018081665	
1740741020919	0.043945312	
1740741020920	0.059814453	
1740741020921	0.0630188	
1740741020922	0.021514893	
1740741020923	-0.00289917	
1740741020924	-0.0025177002	
1740741020925	-0.015487671	
1740741020926	-0.013122559	
1740741020927	-0.037231445	
1740741020928	-0.042877197	
1740741020929	-0.014953613	
1740741020930	-0.016479492	
1740741020931	0.018157959	
1740741020932	0.06378174	
1740741020933	0.03982544	
1740741020934	0.0036621094	
1740741020935	-0.014038086	
1740741020936	-0.015563965	
1740741020937	-0.009231567	
1740741020938	-0.010681152	
1740741020939	-0.01121521	
1740741020940	-0.022506714	
1740741020941	-0.035629272	
1740741020942	-0.037765503	
1740741020943	-0.024108887	
1740741020944	0.008544922	
1740741020945	0.04676819	
1740741020946	0.03387451	
1740741020947	-0.015106201	
1740741020948	-0.0010681152	
1740741020949	0.0035095215	
1740741020950	-0.009536743	
1740741020951	0.0062561035	
1740741020952	0.0045776367	
1740741020953	3.8146973E-4	
1740741020954	-0.0019836426	
1740741020955	-0.0033569336	
1740741020956	-0.0049591064	
1740741020957	-0.008621216	
1740741020958	0.002746582	
1740741020959	0.009155273	
1740741020960	0.0036621094	
1740741020961	0.002822876	
1740741020962	0.003967285	
1740741020963	0.009536743	
1740741020964	0.008392334	
1740741020965	0.0050354004	
1740741020966	0.007171631	
1740741020967	0.00289917	
1740741020968	0.0037384033	
1740741020969	0.002670288	
1740741020970	-0.0019073486	
1740741020971	0.0012207031	
1740741020972	-0.0011444092	
1740741020973	-0.005874634	
1740741020974	-0.01083374	
1740741020975	-0.014190674	
1740741020976	-0.0074768066	
1740741020977	-0.002822876	
1740741020978	-0.0019073486	
1740741020979	0.005722046	
1740741020980	0.015640259	
1740741020981	0.017166138	
1740741020982	0.0090789795	
1740741020983	0.0061798096	
1740741020984	-0.0031280518	
1740741020985	-0.025787354	
1740741020986	-0.02861023	
1740741020987	-0.011291504	
1740741020988	-0.005493164	
1740741020989	-0.0016021729	
1740741020990	0.008773804	
1740741020991	0.0045776367	
1740741020992	-9.918213E-4	
1740741020993	0.0066375732	
1740741020994	0.0073242188	
1740741020995	0.0045776367	
1740741020996	-0.004043579	
1740741020997	-0.030899048	
1740741020998	-0.03578186	
1740741020999	-0.016937256	
1740741021000	3.0517578E-4	
1740741021001	0.03540039	
1740741021002	0.070495605	
1740741021003	0.061416626	
1740741021004	0.0769043	
1740741021005	0.07499695	
1740741021006	-0.0132751465	
1740741021007	-0.03807068	
1740741021008	-0.025405884	
1740741021009	-0.050582886	
1740741021010	-0.05256653	
1740741021011	-0.048599243	
1740741021012	-0.032730103	
1740741021013	-0.013809204	
1740741021014	-0.021209717	
1740741021015	-0.027999878	
1740741021016	-0.026245117	
1740741021017	-0.017242432	
1740741021018	-0.010223389	
1740741021019	0.0038146973	
1740741021020	0.015640259	
1740741021021	0.008239746	
1740741021022	0.008850098	
1740741021023	0.021209717	
1740741021024	0.023803711	
1740741021025	0.016937256	
1740741021026	0.015029907	
1740741021027	0.016555786	
1740741021028	0.0035858154	
1740741021029	-0.018920898	
1740741021030	-0.01701355	
1740741021031	0.016784668	
1740741021032	0.04776001	
1740741021033	0.058746338	
1740741021034	0.056533813	
1740741021035	0.019607544	
1740741021036	-0.009689331	
1740741021037	-0.0062561035	
1740741021038	-0.010604858	
1740741021039	-0.018081665	
1740741021040	-0.020599365	
1740741021041	-0.022125244	
1740741021042	-0.0289917	
1740741021043	-0.04676819	
1740741021044	-0.043411255	
1740741021045	-0.01991272	
1740741021046	0.019073486	
1740741021047	0.053100586	
1740741021048	0.01991272	
1740741021049	-0.010681152	
1740741021050	7.6293945E-4	
1740741021051	-0.01373291	
1740741021052	-0.016098022	
1740741021053	-0.009765625	
1740741021054	-0.01121521	
1740741021055	0.0034332275	
1740741021056	0.0018310547	
1740741021057	0.0022888184	
1740741021058	0.009918213	
1740741021059	-9.918213E-4	
1740741021060	-0.017166138	
1740741021061	-0.019836426	
1740741021062	-0.010070801	
1740741021063	2.2888184E-4	
1740741021064	0.034332275	
1740741021065	0.06996155	
1740741021066	0.04676819	
1740741021067	0.008087158	
1740741021068	-0.0022888184	
1740741021069	-0.0075531006	
1740741021070	-0.012969971	
1740741021071	-0.013122559	
1740741021072	-0.014801025	
1740741021073	-0.020980835	
1740741021074	-0.031585693	
1740741021075	-0.031661987	
1740741021076	-0.01335144	
1740741021077	-3.8146973E-4	
1740741021078	9.1552734E-4	
1740741021079	-2.2888184E-4	
1740741021080	-0.0061798096	
1740741021081	0.0018310547	
1740741021082	0.012741089	
1740741021083	0.009002686	
1740741021084	0.015640259	
1740741021085	0.01876831	
1740741021086	0.008392334	
1740741021087	1.5258789E-4	
1740741021088	-0.0064086914	
1740741021089	-0.00579834	
1740741021090	0.0021362305	
1740741021091	0.016860962	
1740741021092	0.03211975	
1740741021093	0.017242432	
1740741021094	-0.0022888184	
1740741021095	-0.008544922	
1740741021096	-0.02418518	
1740741021097	-0.019683838	
1740741021098	-0.005722046	
1740741021099	6.1035156E-4	
1740741021100	0.0074005127	
1740741021101	7.6293945E-4	
1740741021102	-0.006866455	
1740741021103	-0.0119018555	
1740741021104	-0.008163452	
1740741021105	0.012664795	
1740741021106	0.021743774	
1740741021107	0.023269653	
1740741021108	0.0022125244	
1740741021109	-0.04989624	
1740741021110	-0.06385803	
1740741021111	-0.029144287	
1740741021112	0.021896362	
1740741021113	0.080337524	
1740741021114	0.084609985	
1740741021115	0.035095215	
1740741021116	0.019607544	
1740741021117	-0.009841919	
1740741021118	-0.04600525	
1740741021119	-0.039978027	
1740741021120	-0.04852295	
1740741021121	-0.038909912	
1740741021122	0.005645752	
1740741021123	0.006942749	
1740741021124	-0.031585693	
1740741021125	-0.050201416	
1740741021126	-0.05256653	
1740741021127	-0.033340454	
1740741021128	0.03036499	
1740741021129	0.09605408	
1740741021130	0.10108948	
1740741021131	0.051651	
1740741021132	0.012969971	
1740741021133	-0.005874634	
1740741021134	-0.019302368	
1740741021135	-0.03227234	
1740741021136	-0.041122437	
1740741021137	-0.02670288	
1740741021138	-0.019378662	
1740741021139	-0.033340454	
1740741021140	-0.017471313	
1740741021141	-6.866455E-4	
1740741021142	0.00793457	
1740741021143	0.06790161	
1740741021144	0.08125305	
1740741021145	0.021209717	
1740741021146	3.8146973E-4	
1740741021147	-0.0032806396	
1740741021148	-0.011291504	
1740741021149	-0.014419556	
1740741021150	-0.018081665	
1740741021151	-0.009460449	
1740741021152	-0.002670288	
1740741021153	-0.0047302246	
1740741021154	-0.008621216	
1740741021155	-0.013961792	
1740741021156	-0.01373291	
1740741021157	-0.00541687	
1740741021158	0.0019836426	
1740741021159	0.003967285	
1740741021160	0.0037384033	
1740741021161	-0.0032806396	
1740741021162	-0.0046539307	
1740741021163	-0.0025939941	
1740741021164	-5.340576E-4	
1740741021165	0.012054443	
1740741021166	0.009918213	
1740741021167	-0.0016784668	
1740741021168	0.0012969971	
1740741021169	0.005264282	
1740741021170	0.0035858154	
1740741021171	-0.0017547607	
1740741021172	-0.0032043457	
1740741021173	0.0020599365	
1740741021174	-6.866455E-4	
1740741021175	-5.340576E-4	
1740741021176	0.0060272217	
1740741021177	0.0021362305	
1740741021178	-6.1035156E-4	
1740741021179	-0.0022888184	
1740741021180	-0.0050354004	
1740741021181	-0.0012969971	
1740741021182	0.0059509277	
1740741021183	0.009841919	
1740741021184	0.0034332275	
1740741021185	0.0035095215	
1740741021186	5.340576E-4	
1740741021187	-0.008850098	
1740741021188	-0.016098022	
1740741021189	-0.08552551	
1740741021190	-0.2116394	
1740741021191	-0.25169373	
1740741021192	-0.09170532	
1740741021193	0.14900208	
1740741021194	0.31784058	
1740741021195	0.4081726	
1740741021196	0.29182434	
1740741021197	0.085372925	
1740741021198	0.044784546	
1740741021199	0.002822876	
1740741021200	-0.086746216	
1740741021201	-0.109939575	
1740741021202	-0.12756348	
1740741021203	-0.12763977	
1740741021204	-0.10696411	
1740741021205	-0.08338928	
1740741021206	-0.06790161	
1740741021207	-0.089035034	
1740741021208	-0.1171875	
1740741021209	-0.1096344	
1740741021210	-0.083236694	
1740741021211	-0.032043457	
1740741021212	0.044784546	
1740741021213	0.08277893	
1740741021214	0.089416504	
1740741021215	0.07797241	
1740741021216	0.043640137	
1740741021217	0.028686523	
1740741021218	0.019683838	
1740741021219	0.018920898	
1740741021220	0.019607544	
1740741021221	0.013504028	
1740741021222	0.031661987	
1740741021223	0.04425049	
1740741021224	0.03265381	
1740741021225	0.017547607	
1740741021226	0.008850098	
1740741021227	0.0035095215	
1740741021228	-0.0022888184	
1740741021229	-0.00793457	
1740741021230	-0.0064849854	
1740741021231	-0.0048828125	
1740741021232	-0.007858276	
1740741021233	-0.0022125244	
1740741021234	0.0022125244	
1740741021235	-9.1552734E-4	
1740741021236	8.392334E-4	
1740741021237	-0.0012969971	
1740741021238	-0.012359619	
1740741021239	-0.01663208	
1740741021240	-0.018615723	
1740741021241	-0.009307861	
1740741021242	0.0076293945	
1740741021243	0.004119873	
1740741021244	1.5258789E-4	
1740741021245	0.0019836426	
1740741021246	-0.0012969971	
1740741021247	-0.0025177002	
1740741021248	-0.007019043	
1740741021249	-0.02609253	
1740741021250	-0.031280518	
1740741021251	-0.016403198	
1740741021252	-0.012969971	
1740741021253	0.022888184	
1740741021254	0.06668091	
1740741021255	0.039520264	
1740741021256	-0.0022125244	
1740741021257	-0.015487671	
1740741021258	-0.018615723	
1740741021259	-0.019073486	
1740741021260	-0.018615723	
1740741021261	-0.008773804	
1740741021262	-6.1035156E-4	
1740741021263	-0.0012207031	
1740741021264	-0.0033569336	
1740741021265	-0.0034332275	
1740741021266	-0.0015258789	
1740741021267	-7.6293945E-4	
1740741021268	0.0032043457	
1740741021269	0.0075531006	
1740741021270	0.005264282	
1740741021271	-0.008239746	
1740741021272	-0.025787354	
1740741021273	-0.012054443	
1740741021274	0.017623901	
1740741021275	0.012664795	
1740741021276	-0.00831604	
1740741021277	-0.020446777	
1740741021278	-0.013122559	
1740741021279	0.0048065186	
1740741021280	0.015640259	
1740741021281	0.03692627	
1740741021282	0.051345825	
1740741021283	0.03189087	
1740741021284	0.0075531006	
1740741021285	0.002670288	
1740741021286	6.866455E-4	
1740741021287	-0.0018310547	
1740741021288	-0.0038146973	
1740741021289	-0.008087158	
1740741021290	-0.013427734	
1740741021291	-0.014953613	
1740741021292	-0.023422241	
1740741021293	-0.057144165	
1740741021294	-0.05180359	
1740741021295	-0.0066375732	
1740741021296	0.028533936	
1740741021297	0.07644653	
1740741021298	0.0655365	
1740741021299	0.02998352	
1740741021300	0.037765503	
1740741021301	-0.010681152	
1740741021302	-0.03501892	
1740741021303	-0.019836426	
1740741021304	-0.02670288	
1740741021305	-0.014572144	
1740741021306	-0.03265381	
1740741021307	-0.04005432	
1740741021308	-0.021057129	
1740741021309	-0.022659302	
1740741021310	-0.008163452	
1740741021311	0.0065612793	
1740741021312	0.00831604	
1740741021313	0.0030517578	
1740741021314	-0.0034332275	
1740741021315	3.8146973E-4	
1740741021316	0.0022888184	
1740741021317	0.00579834	
1740741021318	0.004348755	
1740741021319	0.008926392	
1740741021320	0.014038086	
1740741021321	0.009307861	
1740741021322	0.019836426	
1740741021323	0.025939941	
1740741021324	0.01373291	
1740741021325	0.010528564	
1740741021326	0.012207031	
1740741021327	-5.340576E-4	
1740741021328	-0.022659302	
1740741021329	-0.044708252	
1740741021330	-0.045776367	
1740741021331	-0.0076293945	
1740741021332	0.047073364	
1740741021333	0.09742737	
1740741021334	0.098724365	
1740741021335	0.020141602	
1740741021336	-0.026550293	
1740741021337	-0.012435913	
1740741021338	-0.01914978	
1740741021339	-0.023269653	
1740741021340	-0.040130615	
1740741021341	-0.07156372	
1740741021342	-0.061569214	
1740741021343	-0.037460327	
1740741021344	0.009613037	
1740741021345	0.06072998	
1740741021346	0.041046143	
1740741021347	-0.0037384033	
1740741021348	-0.01701355	
1740741021349	-0.02456665	
1740741021350	-0.038604736	
1740741021351	-0.043029785	
1740741021352	-0.029220581	
1740741021353	-0.018005371	
1740741021354	0.005874634	
1740741021355	0.06416321	
1740741021356	0.023803711	
1740741021357	-0.13916016	
1740741021358	-0.18325806	
1740741021359	-0.05859375	
1740741021360	0.10177612	
1740741021361	0.30715942	
1740741021362	0.417099	
1740741021363	0.23590088	
1740741021364	0.05088806	
1740741021365	-0.014572144	
1740741021366	-0.13031006	
1740741021367	-0.16555786	
1740741021368	-0.11917114	
1740741021369	-0.079956055	
1740741021370	-0.013046265	
1740741021371	-0.011291504	
1740741021372	-0.06858826	
1740741021373	-0.07926941	
1740741021374	-0.067596436	
1740741021375	-0.0718689	
1740741021376	-0.05256653	
1740741021377	-0.03501892	
1740741021378	-0.04814148	
1740741021379	-0.048065186	
1740741021380	-0.02357483	
1740741021381	0.0061035156	
1740741021382	0.018234253	
1740741021383	0.029067993	
1740741021384	0.04058838	
1740741021385	0.038528442	
1740741021386	0.041427612	
1740741021387	0.044784546	
1740741021388	0.046463013	
1740741021389	0.046539307	
1740741021390	0.041427612	
1740741021391	0.03677368	
1740741021392	0.028839111	
1740741021393	0.025100708	
1740741021394	0.02609253	
1740741021395	0.026321411	
1740741021396	0.017700195	
1740741021397	0.008926392	
1740741021398	0.010147095	
1740741021399	0.0036621094	
1740741021400	0.0022888184	
1740741021401	0.0025177002	
1740741021402	-0.0075531006	
1740741021403	-0.018615723	
1740741021404	-0.030593872	
1740741021405	-0.03967285	
1740741021406	-0.038223267	
1740741021407	-0.02166748	
1740741021408	0.022888184	
1740741021409	0.04386902	
1740741021410	-0.008926392	
1740741021411	-0.032043457	
1740741021412	-0.016555786	
1740741021413	-0.03173828	
1740741021414	-0.017700195	
1740741021415	-0.0032043457	
1740741021416	-0.010604858	
1740741021417	-0.004272461	
1740741021418	-0.0064849854	
1740741021419	-0.013504028	
1740741021420	-0.030899048	
1740741021421	-0.03616333	
1740741021422	-0.016403198	
1740741021423	3.8146973E-4	
1740741021424	0.0022888184	
1740741021425	0.009613037	
1740741021426	0.013656616	
1740741021427	0.016784668	
1740741021428	0.023727417	
1740741021429	0.016479492	
1740741021430	0.01663208	
1740741021431	0.014953613	
1740741021432	0.0104522705	
1740741021433	0.014190674	
1740741021434	0.014190674	
1740741021435	0.0045776367	
1740741021436	-0.0019836426	
1740741021437	0.0045776367	
1740741021438	0.001373291	
1740741021439	-0.0022888184	
1740741021440	1.5258789E-4	
1740741021441	-9.1552734E-4	
1740741021442	-0.0020599365	
1740741021443	-0.005569458	
1740741021444	-0.0025177002	
1740741021445	0.0048065186	
1740741021446	0.005722046	
1740741021447	-0.0019836426	
1740741021448	-0.012512207	
1740741021449	-0.016403198	
1740741021450	-0.007095337	
1740741021451	0.0032806396	
1740741021452	-0.005569458	
1740741021453	-0.0050354004	
1740741021454	0.0024414062	
1740741021455	-0.0016021729	
1740741021456	-0.008392334	
1740741021457	-0.0022125244	
1740741021458	-6.866455E-4	
1740741021459	0.0	
1740741021460	0.0061798096	
1740741021461	0.004501343	
1740741021462	0.002822876	
1740741021463	-0.004425049	
1740741021464	-0.0076293945	
1740741021465	0.008544922	
1740741021466	0.0063323975	
1740741021467	7.6293945E-4	
1740741021468	0.0075531006	
1740741021469	0.0047302246	
1740741021470	-0.004196167	
1740741021471	6.1035156E-4	
1740741021472	0.005493164	
1740741021473	0.0012207031	
1740741021474	-6.1035156E-4	
1740741021475	-0.0036621094	
1740741021476	-0.0066375732	
1740741021477	-0.002822876	
1740741021478	-0.0036621094	
1740741021479	-0.004119873	
1740741021480	-0.007858276	
1740741021481	-0.0132751465	
1740741021482	-0.023498535	
1740741021483	-0.03517151	
1740741021484	-0.022964478	
1740741021485	0.010757446	
1740741021486	0.043563843	
1740741021487	0.06317139	
1740741021488	0.07041931	
1740741021489	0.023498535	
1740741021490	-0.03555298	
1740741021491	-0.0605011	
1740741021492	-0.055007935	
1740741021493	-0.0062561035	
1740741021494	0.043182373	
1740741021495	0.06904602	
1740741021496	0.070495605	
1740741021497	0.025634766	
1740741021498	-0.018615723	
1740741021499	-0.021820068	
1740741021500	-0.026550293	
1740741021501	-0.07484436	
1740741021502	-0.11054993	
1740741021503	-0.059127808	
1740741021504	0.02166748	
1740741021505	0.07072449	
1740741021506	0.06072998	
1740741021507	0.0029754639	
1740741021508	-0.009765625	
1740741021509	-0.006713867	
1740741021510	-0.017929077	
1740741021511	-0.016403198	
1740741021512	-0.015258789	
1740741021513	-0.010681152	
1740741021514	-0.009384155	
1740741021515	-0.015411377	
1740741021516	-0.017623901	
1740741021517	-0.00289917	
1740741021518	0.029220581	
1740741021519	0.06248474	
1740741021520	0.06271362	
1740741021521	0.012283325	
1740741021522	-8.392334E-4	
1740741021523	0.010681152	
1740741021524	-0.01838684	
1740741021525	-0.0119018555	
1740741021526	0.0021362305	
1740741021527	-0.005493164	
1740741021528	4.5776367E-4	
1740741021529	-0.0077819824	
1740741021530	-0.009841919	
1740741021531	-0.0061035156	
1740741021532	-0.0076293945	
1740741021533	0.0066375732	
1740741021534	0.0049591064	
1740741021535	0.0020599365	
1740741021536	0.0	
1740741021537	-0.004348755	
1740741021538	9.1552734E-4	
1740741021539	-0.0046539307	
1740741021540	-0.0037384033	
1740741021541	0.0060272217	
1740741021542	6.866455E-4	
1740741021543	-0.0076293945	
1740741021544	-0.006713867	
1740741021545	-0.002822876	
1740741021546	-0.0061035156	
1740741021547	-0.0022125244	
1740741021548	-0.005493164	
1740741021549	-0.005874634	
1740741021550	0.004425049	
1740741021551	-0.0017547607	
1740741021552	7.6293945E-4	
1740741021553	0.001373291	
1740741021554	-5.340576E-4	
1740741021555	-3.0517578E-4	
1740741021556	9.918213E-4	
1740741021557	0.0017547607	
1740741021558	7.6293945E-4	
1740741021559	0.0010681152	
1740741021560	0.0033569336	
1740741021561	0.002670288	
1740741021562	-0.0016021729	
1740741021563	-0.004272461	
1740741021564	-0.0035095215	
1740741021565	-0.0011444092	
1740741021566	-0.0051116943	
1740741021567	0.0022125244	
1740741021568	-0.0012969971	
1740741021569	-0.0020599365	
1740741021570	0.006790161	
1740741021571	0.0074005127	
1740741021572	0.010681152	
1740741021573	0.0051116943	
1740741021574	-2.2888184E-4	
1740741021575	0.005493164	
1740741021576	-0.0065612793	
1740741021577	-0.0032806396	
1740741021578	-0.0034332275	
1740741021579	-0.008087158	
1740741021580	-0.0025939941	
1740741021581	7.6293945E-5	
1740741021582	0.0076293945	
1740741021583	0.005722046	
1740741021584	0.00541687	
1740741021585	0.0021362305	
1740741021586	-0.0022125244	
1740741021587	-0.0019836426	
1740741021588	-0.023727417	
1740741021589	-0.022506714	
1740741021590	-0.0059509277	
1740741021591	0.0048828125	
1740741021592	0.005493164	
1740741021593	-0.011672974	
1740741021594	-0.008544922	
1740741021595	0.001449585	
1740741021596	0.002822876	
1740741021597	0.011291504	
1740741021598	0.006790161	
1740741021599	0.0073242188	
1740741021600	0.01373291	
1740741021601	0.0077819824	
1740741021602	0.0062561035	
1740741021603	0.0015258789	
1740741021604	-7.6293945E-4	
1740741021605	0.004043579	
1740741021606	-0.00289917	
1740741021607	-0.029678345	
1740741021608	-0.045776367	
1740741021609	-0.025863647	
1740741021610	0.014190674	
1740741021611	0.051345825	
1740741021612	0.06317139	
1740741021613	0.04135132	
1740741021614	-8.392334E-4	
1740741021615	-0.024795532	
1740741021616	-0.008468628	
1740741021617	0.015335083	
1740741021618	0.030593872	
1740741021619	0.0035095215	
1740741021620	-0.054397583	
1740741021621	-0.07041931	
1740741021622	-0.07751465	
1740741021623	-0.09208679	
1740741021624	-0.014801025	
1740741021625	0.1159668	
1740741021626	0.15800476	
1740741021627	0.11817932	
1740741021628	0.011291504	
1740741021629	-0.060424805	
1740741021630	-0.05317688	
1740741021631	-0.053253174	
1740741021632	-0.040664673	
1740741021633	-0.036315918	
1740741021634	-0.021362305	
1740741021635	0.009841919	
1740741021636	-0.012741089	
1740741021637	-0.019683838	
1740741021638	-0.011444092	
1740741021639	-0.033721924	
1740741021640	-0.02456665	
1740741021641	0.0020599365	
1740741021642	0.013885498	
1740741021643	0.030212402	
1740741021644	-0.023651123	
1740741021645	-0.1689148	
1740741021646	-0.21224976	
1740741021647	-0.05378723	
1740741021648	0.1386261	
1740741021649	0.33988953	
1740741021650	0.43060303	
1740741021651	0.2167511	
1740741021652	0.03440857	
1740741021653	-0.0016784668	
1740741021654	-0.0718689	
1740741021655	-0.06782532	
1740741021656	-0.078048706	
1740741021657	-0.09742737	
1740741021658	-0.078430176	
1740741021659	-0.09124756	
1740741021660	-0.08415222	
1740741021661	-0.076675415	
1740741021662	-0.06355286	
1740741021663	-0.042266846	
1740741021664	-0.03883362	
1740741021665	-0.026855469	
1740741021666	-0.019378662	
1740741021667	-0.014724731	
1740741021668	-0.003967285	
1740741021669	0.007095337	
1740741021670	0.01739502	
1740741021671	0.023422241	
1740741021672	0.024032593	
1740741021673	0.027389526	
1740741021674	0.029144287	
1740741021675	0.028152466	
1740741021676	0.02456665	
1740741021677	0.024261475	
1740741021678	0.029678345	
1740741021679	0.03135681	
1740741021680	0.027618408	
1740741021681	0.016174316	
1740741021682	0.01121521	
1740741021683	0.0063323975	
1740741021684	0.0032806396	
1740741021685	0.005569458	
1740741021686	0.0023651123	
1740741021687	0.001449585	
1740741021688	-0.0032806396	
1740741021689	-0.00831604	
1740741021690	-0.0076293945	
1740741021691	-0.0048828125	
1740741021692	0.0019836426	
1740741021693	-0.0032806396	
1740741021694	-0.007019043	
1740741021695	-0.0030517578	
1740741021696	-0.012741089	
1740741021697	-0.018692017	
1740741021698	-0.015563965	
1740741021699	-0.021133423	
1740741021700	-0.02029419	
1740741021701	-0.008926392	
1740741021702	0.0029754639	
1740741021703	0.005493164	
1740741021704	0.0011444092	
1740741021705	0.0033569336	
1740741021706	-0.0010681152	
1740741021707	-0.00579834	
1740741021708	-0.0037384033	
1740741021709	-0.0023651123	
1740741021710	0.0016784668	
1740741021711	0.00541687	
1740741021712	0.0022888184	
1740741021713	0.0018310547	
1740741021714	0.0065612793	
1740741021715	-0.0019073486	
1740741021716	-0.008468628	
1740741021717	-0.0035858154	
1740741021718	0.0050354004	
1740741021719	0.016326904	
1740741021720	0.007858276	
1740741021721	0.0015258789	
1740741021722	0.006713867	
1740741021723	-6.866455E-4	
1740741021724	0.0025177002	
1740741021725	0.0022125244	
1740741021726	-0.011291504	
1740741021727	-0.005569458	
1740741021728	0.007858276	
1740741021729	-0.012664795	
1740741021730	-0.05241394	
1740741021731	-0.05935669	
1740741021732	-0.012512207	
1740741021733	0.046844482	
1740741021734	0.07774353	
1740741021735	0.047225952	
1740741021736	-0.00831604	
1740741021737	-0.0034332275	
1740741021738	0.03135681	
1740741021739	0.082092285	
1740741021740	0.063934326	
1740741021741	-0.027389526	
1740741021742	-0.03265381	
1740741021743	-0.03112793	
1740741021744	-0.04196167	
1740741021745	-0.037841797	
1740741021746	-0.057754517	
1740741021747	-0.048065186	
1740741021748	-0.031204224	
1740741021749	-0.01914978	
1740741021750	-0.011291504	
1740741021751	-0.0019073486	
1740741021752	0.028457642	
1740741021753	0.024337769	
1740741021754	0.0022125244	
1740741021755	-0.010147095	
1740741021756	-0.018692017	
1740741021757	-0.0064086914	
1740741021758	0.02609253	
1740741021759	0.05470276	
1740741021760	0.041275024	
1740741021761	0.01121521	
1740741021762	0.010375977	
1740741021763	0.0025939941	
1740741021764	-0.009536743	
1740741021765	-0.0059509277	
1740741021766	-0.011749268	
1740741021767	-0.0074005127	
1740741021768	0.004043579	
1740741021769	-9.918213E-4	
1740741021770	-4.5776367E-4	
1740741021771	1.5258789E-4	
1740741021772	-0.0063323975	
1740741021773	-0.005645752	
1740741021774	4.5776367E-4	
1740741021775	0.0034332275	
1740741021776	0.010986328	
1740741021777	0.0061035156	
1740741021778	-0.0024414062	
1740741021779	0.008544922	
1740741021780	0.00793457	
1740741021781	-0.0022125244	
1740741021782	-0.001373291	
1740741021783	0.0050354004	
1740741021784	4.5776367E-4	
1740741021785	-0.005264282	
1740741021786	-0.005493164	
1740741021787	-0.015182495	
1740741021788	-0.008392334	
1740741021789	-0.0019073486	
1740741021790	-0.008392334	
1740741021791	0.001373291	
1740741021792	-0.0019073486	
1740741021793	-0.004425049	
1740741021794	0.004043579	
1740741021795	0.0010681152	
1740741021796	3.8146973E-4	
1740741021797	-0.004501343	
1740741021798	-0.0035095215	
1740741021799	0.0064086914	
1740741021800	7.6293945E-5	
1740741021801	-0.0077819824	
1740741021802	-0.009841919	
1740741021803	-0.008163452	
1740741021804	3.0517578E-4	
1740741021805	0.008163452	
1740741021806	0.010681152	
1740741021807	0.0012207031	
1740741021808	-0.0065612793	
1740741021809	-0.0017547607	
1740741021810	-0.017166138	
1740741021811	-0.03845215	
1740741021812	-0.069122314	
1740741021813	-0.15388489	
1740741021814	-0.205307	
1740741021815	-0.10093689	
1740741021816	0.102996826	
1740741021817	0.33187866	
1740741021818	0.50605774	
1740741021819	0.3375244	
1740741021820	0.066833496	
1740741021821	0.021057129	
1740741021822	-0.06843567	
1740741021823	-0.12756348	
1740741021824	-0.08705139	
1740741021825	-0.08644104	
1740741021826	-0.08987427	
1740741021827	-0.12580872	
1740741021828	-0.14587402	
1740741021829	-0.12176514	
1740741021830	-0.12123108	
1740741021831	-0.08560181	
1740741021832	-0.051345825	
1740741021833	-0.040893555	
1740741021834	-0.01991272	
1740741021835	-0.014877319	
1740741021836	-0.0066375732	
1740741021837	0.005645752	
1740741021838	0.025787354	
1740741021839	0.041275024	
1740741021840	0.040283203	
1740741021841	0.05050659	
1740741021842	0.048980713	
1740741021843	0.04196167	
1740741021844	0.043182373	
1740741021845	0.038604736	
1740741021846	0.04219055	
1740741021847	0.046920776	
1740741021848	0.0440979	
1740741021849	0.047225952	
1740741021850	0.06538391	
1740741021851	0.08270264	
1740741021852	0.04524231	
1740741021853	-0.008850098	
1740741021854	-0.018234253	
1740741021855	-0.030670166	
1740741021856	-0.022125244	
1740741021857	0.008392334	
1740741021858	-0.009002686	
1740741021859	-0.024795532	
1740741021860	-0.028457642	
1740741021861	-0.037384033	
1740741021862	-0.0289917	
1740741021863	-0.026016235	
1740741021864	-0.026626587	
1740741021865	-0.02243042	
1740741021866	-0.018463135	
1740741021867	-0.02281189	
1740741021868	-0.032424927	
1740741021869	-0.029678345	
1740741021870	-0.01739502	
1740741021871	-0.0065612793	
1740741021872	0.0024414062	
1740741021873	0.017929077	
1740741021874	0.02609253	
1740741021875	0.021514893	
1740741021876	0.014724731	
1740741021877	0.0022125244	
1740741021878	3.8146973E-4	
1740741021879	0.0035095215	
1740741021880	0.00579834	
1740741021881	0.010757446	
1740741021882	-0.0025939941	
1740741021883	-0.012359619	
1740741021884	-0.008544922	
1740741021885	-0.010299683	
1740741021886	-0.012893677	
1740741021887	-0.0011444092	
1740741021888	0.009155273	
1740741021889	0.0016021729	
1740741021890	-0.0010681152	
1740741021891	0.01083374	
1740741021892	0.010223389	
1740741021893	0.004043579	
1740741021894	0.010528564	
1740741021895	0.009307861	
1740741021896	0.0090789795	
1740741021897	0.012283325	
1740741021898	0.0022888184	
1740741021899	-0.004043579	
1740741021900	-9.918213E-4	
1740741021901	-0.007019043	
1740741021902	-0.008926392	
1740741021903	3.0517578E-4	
1740741021904	0.005645752	
1740741021905	0.0024414062	
1740741021906	-0.0064086914	
1740741021907	-0.005722046	
1740741021908	-0.0011444092	
1740741021909	0.008163452	
1740741021910	0.006790161	
1740741021911	0.0038909912	
1740741021912	0.0020599365	
1740741021913	-0.03036499	
1740741021914	-0.05203247	
1740741021915	-0.033569336	
1740741021916	-0.011520386	
1740741021917	0.02029419	
1740741021918	0.03677368	
1740741021919	0.04699707	
1740741021920	0.09513855	
1740741021921	0.08895874	
1740741021922	0.010299683	
1740741021923	-0.02571106	
1740741021924	-0.04966736	
1740741021925	-0.07675171	
1740741021926	-0.059890747	
1740741021927	-0.042877197	
1740741021928	-0.005493164	
1740741021929	0.05882263	
1740741021930	0.032577515	
1740741021931	-0.026779175	
1740741021932	-0.032730103	
1740741021933	-0.044174194	
1740741021934	-0.041656494	
1740741021935	-0.009002686	
1740741021936	0.016479492	
1740741021937	0.040893555	
1740741021938	0.055847168	
1740741021939	0.020141602	
1740741021940	-0.016784668	
1740741021941	-0.005340576	
1740741021942	-0.008239746	
1740741021943	-0.016403198	
1740741021944	-0.005645752	
1740741021945	-0.00541687	
1740741021946	-0.007171631	
1740741021947	-0.0049591064	
1740741021948	-0.0016021729	
1740741021949	0.010757446	
1740741021950	0.022583008	
1740741021951	0.0119018555	
1740741021952	0.012512207	
1740741021953	0.03036499	
1740741021954	0.013885498	
1740741021955	-0.0010681152	
1740741021956	0.008468628	
1740741021957	0.0032806396	
1740741021958	-0.0032806396	
1740741021959	-0.010604858	
1740741021960	-0.022506714	
1740741021961	-0.015792847	
1740741021962	-0.00869751	
1740741021963	-6.866455E-4	
1740741021964	0.009231567	
1740741021965	0.011138916	
1740741021966	0.01876831	
1740741021967	0.022354126	
1740741021968	0.015335083	
1740741021969	0.0045776367	
1740741021970	-0.011138916	
1740741021971	-0.022277832	
1740741021972	-0.019989014	
1740741021973	-0.018463135	
1740741021974	-0.008621216	
1740741021975	0.006866455	
1740741021976	0.009307861	
1740741021977	0.0031280518	
1740741021978	-0.009002686	
1740741021979	-0.013809204	
1740741021980	-0.011749268	
1740741021981	-0.013427734	
1740741021982	-0.0132751465	
1740741021983	-0.0035095215	
1740741021984	0.0031280518	
1740741021985	7.6293945E-4	
1740741021986	0.0036621094	
1740741021987	9.918213E-4	
1740741021988	0.0045776367	
1740741021989	0.010757446	
1740741021990	0.0019073486	
1740741021991	6.866455E-4	
1740741021992	0.0064086914	
1740741021993	0.0036621094	
1740741021994	-0.0015258789	
1740741021995	-0.0015258789	
1740741021996	0.0037384033	
1740741021997	0.0060272217	
1740741021998	0.0019073486	
1740741021999	0.004196167	
1740741022000	0.00289917	
1740741022001	0.0034332275	
1740741022002	0.0021362305	
1740741022003	-0.0073242188	
1740741022004	0.0020599365	
1740741022005	0.0020599365	
1740741022006	-0.0051116943	
1740741022007	0.0025177002	
1740741022008	0.0017547607	
1740741022009	-7.6293945E-5	
1740741022010	-0.0010681152	
1740741022011	-0.0051879883	
1740741022012	-6.866455E-4	
1740741022013	0.0024414062	
1740741022014	0.0017547607	
1740741022015	0.0036621094	
1740741022016	0.004043579	
1740741022017	-7.6293945E-4	
1740741022018	-0.0074768066	
1740741022019	-0.0074768066	
1740741022020	0.001449585	
1740741022021	7.6293945E-5	
1740741022022	-0.005493164	
1740741022023	0.0021362305	
1740741022024	0.0031280518	
1740741022025	0.0011444092	
1740741022026	-0.0035858154	
1740741022027	-0.005874634	
1740741022028	9.1552734E-4	
1740741022029	-0.002822876	
1740741022030	-7.6293945E-4	
1740741022031	0.0021362305	
1740741022032	-6.866455E-4	
1740741022033	0.006866455	
1740741022034	7.6293945E-5	
1740741022035	-0.0062561035	
1740741022036	0.0015258789	
1740741022037	-0.004501343	
1740741022038	-0.015182495	
1740741022039	-0.015945435	
1740741022040	-0.0029754639	
1740741022041	0.0059509277	
1740741022042	0.007858276	
1740741022043	0.020904541	
1740741022044	0.027313232	
1740741022045	0.017089844	
1740741022046	0.010986328	
1740741022047	0.0074768066	
1740741022048	-0.0038909912	
1740741022049	-0.015258789	
1740741022050	-0.027160645	
1740741022051	-0.05706787	
1740741022052	-0.05050659	
1740741022053	0.0031280518	
1740741022054	0.04989624	
1740741022055	0.09681702	
1740741022056	0.078048706	
1740741022057	-0.0061798096	
1740741022058	-0.026016235	
1740741022059	-0.029907227	
1740741022060	-0.03677368	
1740741022061	-0.0077819824	
1740741022062	-0.0049591064	
1740741022063	-0.015029907	
1740741022064	-0.027923584	
1740741022065	-0.03715515	
1740741022066	-0.03112793	
1740741022067	-0.042114258	
1740741022068	-0.040283203	
1740741022069	-0.0035095215	
1740741022070	0.044174194	
1740741022071	0.088272095	
1740741022072	0.06607056	
1740741022073	0.008163452	
1740741022074	0.010299683	
1740741022075	0.016021729	
1740741022076	0.009613037	
1740741022077	-0.0032043457	
1740741022078	-0.03074646	
1740741022079	-0.028457642	
1740741022080	-0.028839111	
1740741022081	-0.01953125	
1740741022082	0.04020691	
1740741022083	0.06362915	
1740741022084	0.028762817	
1740741022085	0.0012969971	
1740741022086	-0.010757446	
1740741022087	-0.009994507	
1740741022088	-0.014953613	
1740741022089	-0.027694702	
1740741022090	-0.021057129	
1740741022091	-0.016021729	
1740741022092	-0.02746582	
1740741022093	-0.037765503	
1740741022094	-0.03540039	
1740741022095	-0.010528564	
1740741022096	0.024108887	
1740741022097	0.041656494	
1740741022098	0.04676819	
1740741022099	0.025558472	
1740741022100	-0.0065612793	
1740741022101	-0.0045776367	
1740741022102	-0.006942749	
1740741022103	-0.0119018555	
1740741022104	-0.005340576	
1740741022105	-0.0046539307	
1740741022106	0.020980835	
1740741022107	0.03730774	
1740741022108	0.011367798	
1740741022109	0.0020599365	
1740741022110	0.0048828125	
1740741022111	-0.012817383	
1740741022112	-0.018997192	
1740741022113	-0.011520386	
1740741022114	-0.00831604	
1740741022115	-0.0062561035	
1740741022116	-0.007095337	
1740741022117	-0.0020599365	
1740741022118	0.0032806396	
1740741022119	-9.918213E-4	
1740741022120	-0.0060272217	
1740741022121	-0.012207031	
1740741022122	-0.021438599	
1740741022123	-0.011672974	
1740741022124	0.004501343	
1740741022125	0.012435913	
1740741022126	0.031967163	
1740741022127	0.02571106	
1740741022128	-0.0022125244	
1740741022129	-0.002670288	
1740741022130	0.0012207031	
1740741022131	0.0025177002	
1740741022132	0.0024414062	
1740741022133	-0.0025939941	
1740741022134	0.0033569336	
1740741022135	0.002746582	
1740741022136	-0.0010681152	
1740741022137	0.0030517578	
1740741022138	9.1552734E-4	
1740741022139	-0.0074768066	
1740741022140	-0.012664795	
1740741022141	-0.013504028	
1740741022142	-0.014877319	
1740741022143	-0.009994507	
1740741022144	0.0035858154	
1740741022145	0.020599365	
1740741022146	0.02357483	
1740741022147	0.014724731	
1740741022148	0.0011444092	
1740741022149	-0.024261475	
1740741022150	-0.049057007	
1740741022151	-0.068359375	
1740741022152	-0.046539307	
1740741022153	0.0415802	
1740741022154	0.10536194	
1740741022155	0.10635376	
1740741022156	0.06347656	
1740741022157	-0.015258789	
1740741022158	-0.04196167	
1740741022159	-0.043563843	
1740741022160	-0.055007935	
1740741022161	-0.017700195	
1740741022162	0.019302368	
1740741022163	0.014419556	
1740741022164	-0.014572144	
1740741022165	-0.017623901	
1740741022166	-0.004425049	
1740741022167	-0.0010681152	
1740741022168	0.011444092	
1740741022169	-0.0012969971	
1740741022170	-0.00793457	
1740741022171	0.004119873	
1740741022172	-0.0060272217	
1740741022173	-0.011444092	
1740741022174	-0.009765625	
1740741022175	-0.009918213	
1740741022176	0.0	
1740741022177	0.004043579	
1740741022178	-3.8146973E-4	
1740741022179	0.005874634	
1740741022180	0.0062561035	
1740741022181	1.5258789E-4	
1740741022182	0.0022125244	
1740741022183	0.0034332275	
1740741022184	0.00831604	
1740741022185	0.009994507	
1740741022186	0.008544922	
1740741022187	0.0075531006	
1740741022188	0.0018310547	
1740741022189	0.0012969971	
1740741022190	0.0016021729	
1740741022191	0.0051879883	
1740741022192	0.005722046	
1740741022193	0.0035095215	
1740741022194	0.0066375732	
1740741022195	-0.004196167	
1740741022196	-0.014953613	
1740741022197	-0.011062622	
1740741022198	-0.004501343	
1740741022199	0.0011444092	
1740741022200	0.0075531006	
1740741022201	0.01373291	
1740741022202	0.010910034	
1740741022203	-0.0051879883	
1740741022204	-0.022735596	
1740741022205	-0.025482178	
1740741022206	-0.018920898	
1740741022207	0.00831604	
1740741022208	0.05279541	
1740741022209	0.04508972	
1740741022210	-0.0032043457	
1740741022211	-0.013809204	
1740741022212	0.0012207031	
1740741022213	-0.0021362305	
1740741022214	-0.008239746	
1740741022215	-0.010147095	
1740741022216	-0.032577515	
1740741022217	-0.050354004	
1740741022218	-0.037384033	
1740741022219	-0.004425049	
1740741022220	0.018920898	
1740741022221	0.031433105	
1740741022222	0.043411255	
1740741022223	0.01991272	
1740741022224	-0.025405884	
1740741022225	-0.072021484	
1740741022226	-0.06958008	
1740741022227	0.008087158	
1740741022228	0.0541687	
1740741022229	0.04333496	
1740741022230	0.0060272217	
1740741022231	-0.009613037	
1740741022232	0.04135132	
1740741022233	0.089035034	
1740741022234	0.09346008	
1740741022235	0.033340454	
1740741022236	-0.03829956	
1740741022237	-0.057373047	
1740741022238	-0.06896973	
1740741022239	-0.044326782	
1740741022240	6.1035156E-4	
1740741022241	0.018615723	
1740741022242	-0.0010681152	
1740741022243	-0.03135681	
1740741022244	-0.028381348	
1740741022245	-0.102005005	
1740741022246	-0.24139404	
1740741022247	-0.21354675	
1740741022248	-0.01411438	
1740741022249	0.16868591	
1740741022250	0.36491394	
1740741022251	0.40298462	
1740741022252	0.17677307	
1740741022253	0.041427612	
1740741022254	-0.005264282	
1740741022255	-0.07888794	
1740741022256	-0.07537842	
1740741022257	-0.08583069	
1740741022258	-0.09895325	
1740741022259	-0.08277893	
1740741022260	-0.080337524	
1740741022261	-0.07064819	
1740741022262	-0.07247925	
1740741022263	-0.062332153	
1740741022264	-0.045776367	
1740741022265	-0.027770996	
1740741022266	0.007171631	
1740741022267	0.019454956	
1740741022268	0.013427734	
1740741022269	0.00793457	
1740741022270	0.010375977	
1740741022271	0.01739502	
1740741022272	0.016021729	
1740741022273	0.015411377	
1740741022274	0.013809204	
1740741022275	0.019302368	
1740741022276	0.032577515	
1740741022277	0.027236938	
1740741022278	0.018997192	
1740741022279	0.022125244	
1740741022280	0.015792847	
1740741022281	0.019073486	
1740741022282	0.021591187	
1740741022283	0.008926392	
1740741022284	0.010147095	
1740741022285	0.017166138	
1740741022286	0.012435913	
1740741022287	-0.0032806396	
1740741022288	-0.010986328	
1740741022289	-5.340576E-4	
1740741022290	0.0066375732	
1740741022291	-0.0032043457	
1740741022292	-0.009765625	
1740741022293	-0.005264282	
1740741022294	-0.011749268	
1740741022295	-0.017318726	
1740741022296	-0.016784668	
1740741022297	-0.018081665	
1740741022298	-0.0132751465	
1740741022299	-0.017089844	
1740741022300	-0.01739502	
1740741022301	-0.0037384033	
1740741022302	0.0048828125	
1740741022303	0.0061035156	
1740741022304	0.0022125244	
1740741022305	-0.010528564	
1740741022306	-0.020523071	
1740741022307	-0.010604858	
1740741022308	-7.6293945E-5	
1740741022309	0.0035858154	
1740741022310	0.006713867	
1740741022311	0.0119018555	
1740741022312	0.016403198	
1740741022313	0.010681152	
1740741022314	-0.0011444092	
1740741022315	-0.010528564	
1740741022316	-0.002822876	
1740741022317	-0.004501343	
1740741022318	0.010223389	
1740741022319	0.06645203	
1740741022320	0.05706787	
1740741022321	0.0018310547	
1740741022322	-0.012283325	
1740741022323	-0.020141602	
1740741022324	-0.025405884	
1740741022325	-0.023269653	
1740741022326	-0.025405884	
1740741022327	-0.022277832	
1740741022328	-0.018997192	
1740741022329	-0.013656616	
1740741022330	-0.006713867	
1740741022331	0.0035095215	
1740741022332	0.01083374	
1740741022333	0.0047302246	
1740741022334	-0.0025939941	
1740741022335	-0.0077819824	
1740741022336	-0.023727417	
1740741022337	-0.039749146	
1740741022338	-0.023117065	
1740741022339	0.021743774	
1740741022340	0.063705444	
1740741022341	0.059051514	
1740741022342	0.026779175	
1740741022343	0.032577515	
1740741022344	0.055923462	
1740741022345	0.04699707	
1740741022346	-0.006713867	
1740741022347	-0.011138916	
1740741022348	0.022201538	
1740741022349	-0.02067566	
1740741022350	-0.055389404	
1740741022351	-0.050811768	
1740741022352	-0.05065918	
1740741022353	-0.03517151	
1740741022354	-0.020751953	
1740741022355	-0.01121521	
1740741022356	-0.001373291	
1740741022357	-0.0020599365	
1740741022358	-0.0030517578	
1740741022359	0.001449585	
1740741022360	-7.6293945E-4	
1740741022361	-0.001449585	
1740741022362	7.6293945E-5	
1740741022363	-0.003967285	
1740741022364	-0.002822876	
1740741022365	0.009613037	
1740741022366	0.03845215	
1740741022367	0.046081543	
1740741022368	0.019454956	
1740741022369	2.2888184E-4	
1740741022370	-0.02861023	
1740741022371	-0.05027771	
1740741022372	-0.024642944	
1740741022373	0.013122559	
1740741022374	0.036621094	
1740741022375	0.04814148	
1740741022376	0.045013428	
1740741022377	0.018539429	
1740741022378	0.0029754639	
1740741022379	0.0048828125	
1740741022380	-6.1035156E-4	
1740741022381	0.0061035156	
1740741022382	-0.0048065186	
1740741022383	-0.056533813	
1740741022384	-0.16189575	
1740741022385	-0.26138306	
1740741022386	-0.16555786	
1740741022387	0.06942749	
1740741022388	0.30723572	
1740741022389	0.46875	
1740741022390	0.30662537	
1740741022391	0.04989624	
1740741022392	-0.010375977	
1740741022393	-0.07911682	
1740741022394	-0.12428284	
1740741022395	-0.11077881	
1740741022396	-0.11909485	
1740741022397	-0.10177612	
1740741022398	-0.10520935	
1740741022399	-0.09284973	
1740741022400	-0.0692749	
1740741022401	-0.070114136	
1740741022402	-0.048065186	
1740741022403	-0.03944397	
1740741022404	-0.027008057	
1740741022405	-0.00793457	
1740741022406	-0.0036621094	
1740741022407	0.013961792	
1740741022408	0.025253296	
1740741022409	0.031661987	
1740741022410	0.03753662	
1740741022411	0.04096985	
1740741022412	0.048217773	
1740741022413	0.0440979	
1740741022414	0.039749146	
1740741022415	0.039367676	
1740741022416	0.036621094	
1740741022417	0.034332275	
1740741022418	0.0315094	
1740741022419	0.033187866	
1740741022420	0.026016235	
1740741022421	0.018539429	
1740741022422	0.01838684	
1740741022423	0.00579834	
1740741022424	9.918213E-4	
1740741022425	-0.00289917	
1740741022426	-0.012435913	
1740741022427	-0.0073242188	
1740741022428	-0.0132751465	
1740741022429	-0.017547607	
1740741022430	-0.012130737	
1740741022431	-0.01777649	
1740741022432	-0.014266968	
1740741022433	-0.013580322	
1740741022434	-0.017547607	
1740741022435	-0.018234253	
1740741022436	-0.053024292	
1740741022437	-0.10131836	
1740741022438	-0.08911133	
1740741022439	-0.0119018555	
1740741022440	0.094451904	
1740741022441	0.1940155	
1740741022442	0.157547	
1740741022443	0.02571106	
1740741022444	-0.0118255615	
1740741022445	-0.027694702	
1740741022446	-0.072631836	
1740741022447	-0.08201599	
1740741022448	-0.0907135	
1740741022449	-0.060195923	
1740741022450	-0.01586914	
1740741022451	-0.0075531006	
1740741022452	9.918213E-4	
1740741022453	-0.010299683	
1740741022454	-0.022888184	
1740741022455	-0.0074005127	
1740741022456	0.017852783	
1740741022457	0.039138794	
1740741022458	0.026321411	
1740741022459	-0.0064086914	
1740741022460	-0.0075531006	
1740741022461	-0.0033569336	
1740741022462	0.0074768066	
1740741022463	0.044784546	
1740741022464	0.058898926	
1740741022465	0.07019043	
1740741022466	0.049591064	
1740741022467	-0.013122559	
1740741022468	-0.011672974	
1740741022469	-0.005874634	
1740741022470	-0.018157959	
1740741022471	-0.027160645	
1740741022472	-0.052947998	
1740741022473	-0.044174194	
1740741022474	-0.038375854	
1740741022475	-0.0021362305	
1740741022476	0.08018494	
1740741022477	0.069503784	
1740741022478	0.0073242188	
1740741022479	-0.004043579	
1740741022480	-0.0048828125	
1740741022481	-0.01701355	
1740741022482	-0.01701355	
1740741022483	-0.01777649	
1740741022484	-0.01701355	
1740741022485	-0.013961792	
1740741022486	-0.012893677	
1740741022487	-0.009002686	
1740741022488	-0.012817383	
1740741022489	-0.012130737	
1740741022490	-0.0035858154	
1740741022491	0.0032043457	
1740741022492	-7.6293945E-5	
1740741022493	-0.0031280518	
1740741022494	0.007171631	
1740741022495	0.014190674	
1740741022496	0.014266968	
1740741022497	0.0090789795	
1740741022498	0.0021362305	
1740741022499	0.004348755	
1740741022500	0.009841919	
1740741022501	0.0063323975	
1740741022502	0.005493164	
1740741022503	0.009231567	
1740741022504	0.0017547607	
1740741022505	-0.007247925	
1740741022506	-0.007858276	
1740741022507	-0.0035858154	
1740741022508	-3.0517578E-4	
1740741022509	0.0033569336	
1740741022510	0.004196167	
1740741022511	5.340576E-4	
1740741022512	0.0031280518	
1740741022513	0.0051879883	
1740741022514	0.002670288	
1740741022515	-0.0020599365	
1740741022516	-0.0037384033	
1740741022517	-0.0090789795	
1740741022518	-0.0060272217	
1740741022519	0.009613037	
1740741022520	0.0023651123	
1740741022521	-0.0025939941	
1740741022522	0.0019073486	
1740741022523	-0.014724731	
1740741022524	-0.029449463	
1740741022525	-0.025634766	
1740741022526	-0.004425049	
1740741022527	0.0012969971	
1740741022528	-0.009689331	
1740741022529	2.2888184E-4	
1740741022530	0.013122559	
1740741022531	0.018997192	
1740741022532	0.033798218	
1740741022533	0.028305054	
1740741022534	0.0076293945	
1740741022535	5.340576E-4	
1740741022536	-0.0011444092	
1740741022537	-0.004348755	
1740741022538	-0.006942749	
1740741022539	-0.0023651123	
1740741022540	-0.007095337	
1740741022541	-0.0059509277	
1740741022542	-0.001373291	
1740741022543	-0.009765625	
1740741022544	-0.0038146973	
1740741022545	-4.5776367E-4	
1740741022546	-7.6293945E-5	
1740741022547	-0.0037384033	
1740741022548	-0.011367798	
1740741022549	-0.016860962	
1740741022550	-0.029296875	
1740741022551	-0.019454956	
1740741022552	0.01701355	
1740741022553	0.060577393	
1740741022554	0.042114258	
1740741022555	-0.012817383	
1740741022556	-0.02319336	
1740741022557	-0.057144165	
1740741022558	-0.07247925	
1740741022559	-0.007171631	
1740741022560	0.066833496	
1740741022561	0.13694763	
1740741022562	0.11550903	
1740741022563	0.010299683	
1740741022564	-0.028839111	
1740741022565	-0.04043579	
1740741022566	-0.054855347	
1740741022567	-0.04508972	
1740741022568	-0.033416748	
1740741022569	-0.01953125	
1740741022570	-0.021057129	
1740741022571	-0.026168823	
1740741022572	-0.0060272217	
1740741022573	0.0011444092	
1740741022574	7.6293945E-5	
1740741022575	-0.0025939941	
1740741022576	-0.0017547607	
1740741022577	0.008850098	
1740741022578	0.008239746	
1740741022579	0.008926392	
1740741022580	0.0038146973	
1740741022581	0.0025939941	
1740741022582	0.009536743	
1740741022583	0.0029754639	
1740741022584	0.003967285	
1740741022585	0.011291504	
1740741022586	0.005874634	
1740741022587	0.0034332275	
1740741022588	0.012741089	
1740741022589	0.015640259	
1740741022590	0.014343262	
1740741022591	0.020217896	
1740741022592	0.0104522705	
1740741022593	-0.0029754639	
1740741022594	-0.00541687	
1740741022595	-0.005264282	
1740741022596	-0.015106201	
1740741022597	-0.034942627	
1740741022598	-0.027923584	
1740741022599	-0.009689331	
1740741022600	0.012588501	
1740741022601	0.066604614	
1740741022602	0.080718994	
1740741022603	0.0038146973	
1740741022604	-0.069885254	
1740741022605	-0.066833496	
1740741022606	-0.02418518	
1740741022607	0.008773804	
1740741022608	0.03303528	
1740741022609	0.042495728	
1740741022610	0.0029754639	
1740741022611	-0.029373169	
1740741022612	-0.023651123	
1740741022613	-0.026321411	
1740741022614	-0.021896362	
1740741022615	-0.016555786	
1740741022616	-0.012130737	
1740741022617	-0.011138916	
1740741022618	-0.0037384033	
1740741022619	0.01701355	
1740741022620	0.0059509277	
1740741022621	0.0024414062	
1740741022622	0.009689331	
1740741022623	-0.0015258789	
1740741022624	0.004272461	
1740741022625	0.0061035156	
1740741022626	0.0038909912	
1740741022627	0.0049591064	
1740741022628	0.007247925	
1740741022629	0.012817383	
1740741022630	0.008087158	
1740741022631	0.004043579	
1740741022632	0.0066375732	
1740741022633	0.002822876	
1740741022634	0.003967285	
1740741022635	0.008544922	
1740741022636	0.0076293945	
1740741022637	0.0019073486	
1740741022638	-0.001373291	
1740741022639	-0.0023651123	
1740741022640	-0.005645752	
1740741022641	-0.004425049	
1740741022642	-0.0077819824	
1740741022643	-0.005569458	
1740741022644	-0.001449585	
1740741022645	-0.0032043457	
1740741022646	-2.2888184E-4	
1740741022647	-0.007095337	
1740741022648	-0.0076293945	
1740741022649	-0.0038909912	
1740741022650	-0.008926392	
1740741022651	-0.0050354004	
1740741022652	-0.0076293945	
1740741022653	-0.005340576	
1740741022654	0.0048828125	
1740741022655	0.03189087	
1740741022656	0.046157837	
1740741022657	-0.0035095215	
1740741022658	-0.037078857	
1740741022659	-0.03288269	
1740741022660	-0.01625061	
1740741022661	0.031204224	
1740741022662	0.07965088	
1740741022663	0.10520935	
1740741022664	0.041503906	
1740741022665	-0.03173828	
1740741022666	-0.026245117	
1740741022667	-0.043792725	
1740741022668	-0.05508423	
1740741022669	-0.077056885	
1740741022670	-0.19515991	
1740741022671	-0.2747345	
1740741022672	-0.16921997	
1740741022673	0.04676819	
1740741022674	0.27420044	
1740741022675	0.4423523	
1740741022676	0.31341553	
1740741022677	0.059814453	
1740741022678	-0.022659302	
1740741022679	-0.097732544	
1740741022680	-0.113601685	
1740741022681	-0.062179565	
1740741022682	-0.049972534	
1740741022683	-0.01701355	
1740741022684	-0.0415802	
1740741022685	-0.083999634	
1740741022686	-0.08842468	
1740741022687	-0.08628845	
1740741022688	-0.05935669	
1740741022689	-0.011062622	
1740741022690	0.053253174	
1740741022691	0.03578186	
1740741022692	-0.031204224	
1740741022693	-0.013504028	
1740741022694	0.046081543	
1740741022695	0.091781616	
1740741022696	0.09063721	
1740741022697	0.040283203	
1740741022698	0.012283325	
1740741022699	0.004272461	
1740741022700	-0.005264282	
1740741022701	-0.0047302246	
1740741022702	-0.016479492	
1740741022703	-0.03211975	
1740741022704	-0.026245117	
1740741022705	-0.014343262	
1740741022706	-0.006866455	
1740741022707	0.0032806396	
1740741022708	0.008163452	
1740741022709	0.0037384033	
1740741022710	-0.0019073486	
1740741022711	-0.00541687	
1740741022712	0.0031280518	
1740741022713	0.009307861	
1740741022714	0.0024414062	
1740741022715	0.006713867	
1740741022716	0.008850098	
1740741022717	0.0036621094	
1740741022718	0.0048828125	
1740741022719	0.0034332275	
1740741022720	0.007095337	
1740741022721	0.0059509277	
1740741022722	-0.0025939941	
1740741022723	-4.5776367E-4	
1740741022724	-0.0022125244	
1740741022725	-0.010070801	
1740741022726	-0.008392334	
1740741022727	-0.0037384033	
1740741022728	-0.0062561035	
1740741022729	-0.007858276	
1740741022730	-0.009460449	
1740741022731	-0.0064086914	
1740741022732	0.0047302246	
1740741022733	0.005569458	
1740741022734	1.5258789E-4	
1740741022735	0.010223389	
1740741022736	0.0074005127	
1740741022737	-0.0063323975	
1740741022738	-0.0016784668	
1740741022739	-0.0032043457	
1740741022740	-0.0023651123	
1740741022741	0.0019836426	
1740741022742	-0.005340576	
1740741022743	-0.014038086	
1740741022744	-0.023345947	
1740741022745	-0.027389526	
1740741022746	-0.025253296	
1740741022747	-0.014266968	
1740741022748	0.025177002	
1740741022749	0.04547119	
1740741022750	0.06889343	
1740741022751	0.11566162	
1740741022752	0.05882263	
1740741022753	-0.038909912	
1740741022754	-0.052642822	
1740741022755	-0.04600525	
1740741022756	-0.05783081	
1740741022757	-0.06439209	
1740741022758	-0.0541687	
1740741022759	-0.03135681	
1740741022760	-0.0047302246	
1740741022761	0.030670166	
1740741022762	0.050430298	
1740741022763	0.05180359	
1740741022764	0.016708374	
1740741022765	-0.015640259	
1740741022766	0.02822876	
1740741022767	0.034561157	
1740741022768	-0.0025939941	
1740741022769	-0.009613037	
1740741022770	-0.015563965	
1740741022771	-0.010528564	
1740741022772	-0.012130737	
1740741022773	-0.01739502	
1740741022774	-0.0075531006	
1740741022775	-0.0077819824	
1740741022776	-0.0132751465	
1740741022777	-0.014419556	
1740741022778	-0.008850098	
1740741022779	-0.0034332275	
1740741022780	0.0021362305	
1740741022781	0.009918213	
1740741022782	0.010223389	
1740741022783	0.013885498	
1740741022784	0.011520386	
1740741022785	6.866455E-4	
1740741022786	-0.0038909912	
1740741022787	-0.0016021729	
1740741022788	0.0032043457	
1740741022789	0.007171631	
1740741022790	0.0038146973	
1740741022791	0.002746582	
1740741022792	0.01083374	
1740741022793	0.00831604	
1740741022794	0.0063323975	
1740741022795	0.00793457	
1740741022796	0.008392334	
1740741022797	0.01663208	
1740741022798	0.0051879883	
1740741022799	-0.018615723	
1740741022800	-0.03578186	
1740741022801	-0.038757324	
1740741022802	-0.0025177002	
1740741022803	0.0077819824	
1740741022804	0.005645752	
1740741022805	0.060577393	
1740741022806	0.07034302	
1740741022807	0.00869751	
1740741022808	-0.021972656	
1740741022809	-0.035858154	
1740741022810	-0.041732788	
1740741022811	-0.02708435	
1740741022812	-0.029296875	
1740741022813	-0.051345825	
1740741022814	-0.03112793	
1740741022815	0.025177002	
1740741022816	0.042266846	
1740741022817	0.053024292	
1740741022818	0.051193237	
1740741022819	-0.0020599365	
1740741022820	-0.032424927	
1740741022821	-0.032196045	
1740741022822	-0.036087036	
1740741022823	-0.016555786	
1740741022824	0.02357483	
1740741022825	0.033111572	
1740741022826	-6.866455E-4	
1740741022827	-0.016403198	
1740741022828	-0.0060272217	
1740741022829	-0.00831604	
1740741022830	-0.00579834	
1740741022831	-0.0051879883	
1740741022832	-0.0038909912	
1740741022833	0.0048065186	
1740741022834	0.0037384033	
1740741022835	0.0046539307	
1740741022836	0.0048065186	
1740741022837	0.004272461	
1740741022838	0.0047302246	
1740741022839	8.392334E-4	
1740741022840	-0.0035095215	
1740741022841	2.2888184E-4	
1740741022842	0.011367798	
1740741022843	0.018539429	
1740741022844	0.021896362	
1740741022845	0.022201538	
1740741022846	0.011138916	
1740741022847	0.0048065186	
1740741022848	3.8146973E-4	
1740741022849	-0.0016021729	
1740741022850	-0.0021362305	
1740741022851	-0.012741089	
1740741022852	-0.01449585	
1740741022853	-0.009613037	
1740741022854	-0.01373291	
1740741022855	-0.018310547	
1740741022856	-0.01586914	
1740741022857	-0.0064849854	
1740741022858	0.001373291	
1740741022859	-0.0048065186	
1740741022860	-6.1035156E-4	
1740741022861	0.0073242188	
1740741022862	0.0038909912	
1740741022863	-0.0018310547	
1740741022864	9.918213E-4	
1740741022865	-8.392334E-4	
1740741022866	6.866455E-4	
1740741022867	0.0025177002	
1740741022868	-0.010070801	
1740741022869	-0.039901733	
1740741022870	-0.07270813	
1740741022871	-0.03944397	
1740741022872	0.06149292	
1740741022873	0.13191223	
1740741022874	0.12695312	
1740741022875	0.0630188	
1740741022876	-0.018005371	
1740741022877	-0.03883362	
1740741022878	-0.040512085	
1740741022879	-0.048446655	
1740741022880	-0.037231445	
1740741022881	-0.02784729	
1740741022882	-0.00289917	
1740741022883	0.0037384033	
1740741022884	-0.01777649	
1740741022885	-0.016479492	
1740741022886	-0.018844604	
1740741022887	-0.019989014	
1740741022888	-0.010910034	
1740741022889	-0.012054443	
1740741022890	-0.0025177002	
1740741022891	0.0077056885	
1740741022892	0.011138916	
1740741022893	0.0104522705	
1740741022894	0.008621216	
1740741022895	0.011291504	
1740741022896	0.007019043	
1740741022897	-0.0048828125	
1740741022898	-3.8146973E-4	
1740741022899	0.01121521	
1740741022900	0.008163452	
1740741022901	0.002822876	
1740741022902	0.0075531006	
1740741022903	0.018997192	
1740741022904	0.016403198	
1740741022905	0.0073242188	
1740741022906	0.008010864	
1740741022907	0.0012969971	
1740741022908	-9.918213E-4	
1740741022909	-0.0021362305	
1740741022910	-0.0023651123	
1740741022911	2.2888184E-4	
1740741022912	-0.0022888184	
1740741022913	-0.0018310547	
1740741022914	-7.6293945E-4	
1740741022915	-6.1035156E-4	
1740741022916	-0.0012207031	
1740741022917	-0.0022888184	
1740741022918	-0.0025939941	
1740741022919	-0.004196167	
1740741022920	-0.0064086914	
1740741022921	-0.004348755	
1740741022922	-0.0049591064	
1740741022923	-0.005264282	
1740741022924	0.0024414062	
1740741022925	0.006790161	
1740741022926	0.0021362305	
1740741022927	-0.013122559	
1740741022928	-0.026626587	
1740741022929	-0.028152466	
1740741022930	-0.012893677	
1740741022931	-7.6293945E-4	
1740741022932	-0.0031280518	
1740741022933	0.011291504	
1740741022934	0.017089844	
1740741022935	0.011672974	
1740741022936	0.016174316	
1740741022937	0.010375977	
1740741022938	0.0012969971	
1740741022939	-0.015335083	
1740741022940	-0.021514893	
1740741022941	-0.016555786	
1740741022942	-0.023956299	
1740741022943	0.01411438	
1740741022944	0.06599426	
1740741022945	0.060577393	
1740741022946	0.054779053	
1740741022947	0.061187744	
1740741022948	0.01625061	
1740741022949	-0.038909912	
1740741022950	-0.03517151	
1740741022951	-0.035476685	
1740741022952	-0.042037964	
1740741022953	-0.039978027	
1740741022954	-0.03791809	
1740741022955	-0.03501892	
1740741022956	-0.032958984	
1740741022957	-0.023880005	
1740741022958	-0.004043579	
1740741022959	-0.0037384033	
1740741022960	-0.016174316	
1740741022961	0.0059509277	
1740741022962	0.03540039	
1740741022963	0.058517456	
1740741022964	0.0390625	
1740741022965	0.0047302246	
1740741022966	0.002822876	
1740741022967	-0.016403198	
1740741022968	-0.04966736	
1740741022969	-0.069122314	
1740741022970	-0.031967163	
1740741022971	0.06492615	
1740741022972	0.13008118	
1740741022973	0.11993408	
1740741022974	0.050125122	
1740741022975	-0.020980835	
1740741022976	-0.03288269	
1740741022977	-0.033798218	
1740741022978	-0.02960205	
1740741022979	0.0090789795	
1740741022980	0.0061798096	
1740741022981	-0.02456665	
1740741022982	-0.03135681	
1740741022983	-0.036621094	
1740741022984	-0.039138794	
1740741022985	-0.025558472	
1740741022986	-0.019226074	
1740741022987	-0.01625061	
1740741022988	-0.005874634	
1740741022989	-0.0019073486	
1740741022990	0.0064086914	
1740741022991	0.018234253	
1740741022992	0.013198853	
1740741022993	0.0029754639	
1740741022994	0.0035095215	
1740741022995	0.0073242188	
1740741022996	0.01083374	
1740741022997	0.008163452	
1740741022998	0.013809204	
1740741022999	0.010681152	
1740741023000	-7.6293945E-5	
1740741023001	0.002822876	
1740741023002	0.007171631	
1740741023003	0.006790161	
1740741023004	0.0049591064	
1740741023005	0.012512207	
1740741023006	0.010604858	
1740741023007	-5.340576E-4	
1740741023008	0.0020599365	
1740741023009	0.002746582	
1740741023010	-0.0020599365	
1740741023011	-0.004196167	
1740741023012	-0.0048828125	
1740741023013	-0.001373291	
1740741023014	-0.0023651123	
1740741023015	-0.009689331	
1740741023016	-0.015792847	
1740741023017	-0.015945435	
1740741023018	-0.021209717	
1740741023019	-0.020599365	
1740741023020	-0.0024414062	
1740741023021	0.0036621094	
1740741023022	0.0031280518	
1740741023023	0.005340576	
1740741023024	0.0034332275	
1740741023025	0.0051879883	
1740741023026	0.0051879883	
1740741023027	0.0065612793	
1740741023028	0.002822876	
1740741023029	-0.0030517578	
1740741023030	4.5776367E-4	
1740741023031	7.6293945E-4	
1740741023032	0.0012207031	
1740741023033	0.016021729	
1740741023034	0.02494812	
1740741023035	0.012741089	
1740741023036	-0.0073242188	
1740741023037	-0.0031280518	
1740741023038	-0.001373291	
1740741023039	-0.014724731	
1740741023040	-0.008163452	
1740741023041	-0.005340576	
1740741023042	-0.007171631	
1740741023043	-0.001373291	
1740741023044	-0.0047302246	
1740741023045	-0.0064849854	
1740741023046	-0.0038909912	
1740741023047	-0.0038146973	
1740741023048	-0.0025177002	
1740741023049	0.0010681152	
1740741023050	3.0517578E-4	
1740741023051	-0.006942749	
1740741023052	-0.0059509277	
1740741023053	0.0061035156	
1740741023054	0.018615723	
1740741023055	0.015792847	
1740741023056	-0.0047302246	
1740741023057	-0.024795532	
1740741023058	-0.021133423	
1740741023059	-0.003967285	
1740741023060	0.0018310547	
1740741023061	0.027542114	
1740741023062	0.059509277	
1740741023063	0.034561157	
1740741023064	-0.0051116943	
1740741023065	-0.009613037	
1740741023066	-0.012130737	
1740741023067	-0.01121521	
1740741023068	-0.0073242188	
1740741023069	-0.010681152	
1740741023070	0.0021362305	
1740741023071	0.013580322	
1740741023072	0.0016784668	
1740741023073	-0.014419556	
1740741023074	-0.024108887	
1740741023075	-0.018081665	
1740741023076	-0.012969971	
1740741023077	-0.017242432	
1740741023078	-0.0065612793	
1740741023079	-0.0018310547	
1740741023080	-0.02204895	
1740741023081	-0.044555664	
1740741023082	-0.032958984	
1740741023083	0.013580322	
1740741023084	0.06980896	
1740741023085	0.09567261	
1740741023086	0.048217773	
1740741023087	0.03967285	
1740741023088	0.078811646	
1740741023089	0.030441284	
1740741023090	-0.030288696	
1740741023091	-0.039978027	
1740741023092	-0.04676819	
1740741023093	-0.046081543	
1740741023094	-0.034942627	
1740741023095	-0.0289917	
1740741023096	-0.02532959	
1740741023097	-0.019760132	
1740741023098	-0.030441284	
1740741023099	-0.04310608	
1740741023100	-0.02281189	
1740741023101	-3.8146973E-4	
1740741023102	-0.0023651123	
1740741023103	0.0018310547	
1740741023104	-2.2888184E-4	
1740741023105	0.00793457	
1740741023106	0.048599243	
1740741023107	0.051879883	
1740741023108	0.033111572	
1740741023109	0.03616333	
1740741023110	0.028152466	
1740741023111	0.016784668	
1740741023112	0.009765625	
1740741023113	0.0010681152	
1740741023114	-0.0029754639	
1740741023115	-0.0061035156	
1740741023116	-0.007171631	
1740741023117	-0.01663208	
1740741023118	-0.024490356	
1740741023119	-0.009231567	
1740741023120	-0.0018310547	
1740741023121	-0.012054443	
1740741023122	-0.012664795	
1740741023123	-0.013504028	
1740741023124	-0.008010864	
1740741023125	0.0146484375	
1740741023126	0.031814575	
1740741023127	0.023345947	
1740741023128	-0.0050354004	
1740741023129	-0.010070801	
1740741023130	-0.0038146973	
1740741023131	-0.008392334	
1740741023132	-0.004196167	
1740741023133	-0.008163452	
1740741023134	-0.0049591064	
1740741023135	0.0016021729	
1740741023136	-0.012435913	
1740741023137	-0.017852783	
1740741023138	-0.0047302246	
1740741023139	0.005493164	
1740741023140	-0.0016784668	
1740741023141	-0.0036621094	
1740741023142	0.0038146973	
1740741023143	0.006942749	
1740741023144	0.008926392	
1740741023145	0.00289917	
1740741023146	-0.0036621094	
1740741023147	-0.0016784668	
1740741023148	0.001373291	
1740741023149	0.008239746	
1740741023150	0.010528564	
1740741023151	-3.8146973E-4	
1740741023152	0.0010681152	
1740741023153	0.008087158	
1740741023154	0.0019836426	
1740741023155	-0.0020599365	
1740741023156	-0.0022125244	
1740741023157	-0.0019073486	
1740741023158	-0.0049591064	
1740741023159	-0.010070801	
1740741023160	-0.0118255615	
1740741023161	-0.0104522705	
1740741023162	-0.004425049	
1740741023163	-0.001373291	
1740741023164	0.0036621094	
1740741023165	0.017318726	
1740741023166	0.02128601	
1740741023167	0.009918213	
1740741023168	-2.2888184E-4	
1740741023169	-0.00541687	
1740741023170	-0.004119873	
1740741023171	-0.0020599365	
1740741023172	-0.0025939941	
1740741023173	-0.0029754639	
1740741023174	-0.0060272217	
1740741023175	-7.6293945E-4	
1740741023176	0.013504028	
1740741023177	0.017166138	
1740741023178	0.010299683	
1740741023179	-0.0030517578	
1740741023180	-0.025634766	
1740741023181	-0.02960205	
1740741023182	-0.012283325	
1740741023183	-1.5258789E-4	
1740741023184	0.0032043457	
1740741023185	0.0019073486	
1740741023186	6.1035156E-4	
1740741023187	0.005493164	
1740741023188	0.009307861	
1740741023189	0.0066375732	
1740741023190	0.0024414062	
1740741023191	-0.0012207031	
1740741023192	-0.0017547607	
1740741023193	-6.866455E-4	
1740741023194	-7.6293945E-5	
1740741023195	5.340576E-4	
1740741023196	0.0021362305	
1740741023197	0.0017547607	
1740741023198	9.918213E-4	
1740741023199	0.002822876	
1740741023200	0.0035858154	
1740741023201	0.004196167	
1740741023202	-5.340576E-4	
1740741023203	-0.010223389	
1740741023204	-0.0119018555	
1740741023205	-0.008239746	
1740741023206	-0.0019073486	
1740741023207	0.008087158	
1740741023208	-0.009460449	
1740741023209	-0.058441162	
1740741023210	-0.06454468	
1740741023211	0.011672974	
1740741023212	0.11383057	
1740741023213	0.1561737	
1740741023214	0.09140015	
1740741023215	0.009841919	
1740741023216	-0.02128601	
1740741023217	-0.058135986	
1740741023218	-0.086364746	
1740741023219	-0.10757446	
1740741023220	-0.10002136	
1740741023221	-0.0010681152	
1740741023222	0.0718689	
1740741023223	0.08300781	
1740741023224	0.10757446	
1740741023225	0.05744934	
1740741023226	-0.026245117	
1740741023227	-0.049591064	
1740741023228	-0.06462097	
1740741023229	-0.038986206	
1740741023230	-0.016555786	
1740741023231	-0.053863525	
1740741023232	-0.051345825	
1740741023233	-0.030670166	
1740741023234	-0.023269653	
1740741023235	0.014801025	
1740741023236	0.043563843	
1740741023237	0.02784729	
1740741023238	3.0517578E-4	
1740741023239	9.918213E-4	
1740741023240	0.00289917	
1740741023241	-0.0010681152	
1740741023242	0.00541687	
1740741023243	0.007171631	
1740741023244	0.017242432	
1740741023245	0.023345947	
1740741023246	0.014953613	
1740741023247	0.016555786	
1740741023248	0.017700195	
1740741023249	0.010147095	
1740741023250	0.004501343	
1740741023251	0.006790161	
1740741023252	0.0077056885	
1740741023253	-3.8146973E-4	
1740741023254	-0.0031280518	
1740741023255	-0.0012207031	
1740741023256	0.0047302246	
1740741023257	0.00831604	
1740741023258	3.8146973E-4	
1740741023259	-0.0035095215	
1740741023260	0.001373291	
1740741023261	0.0016784668	
1740741023262	-0.0016021729	
1740741023263	-0.0016784668	
1740741023264	-0.0036621094	
1740741023265	-0.006866455	
1740741023266	-0.005340576	
1740741023267	-0.005340576	
1740741023268	-0.01121521	
1740741023269	-0.0119018555	
1740741023270	-0.013122559	
1740741023271	-0.0104522705	
1740741023272	-0.004425049	
1740741023273	-0.0075531006	
1740741023274	4.5776367E-4	
1740741023275	0.0022125244	
1740741023276	-0.008621216	
1740741023277	-0.0077819824	
1740741023278	-0.0018310547	
1740741023279	0.0049591064	
1740741023280	0.0019073486	
1740741023281	7.6293945E-4	
1740741023282	0.0029754639	
1740741023283	-0.0030517578	
1740741023284	0.0021362305	
1740741023285	0.004348755	
1740741023286	0.008926392	
1740741023287	0.01953125	
1740741023288	-0.0020599365	
1740741023289	-0.026168823	
1740741023290	-0.017623901	
1740741023291	9.1552734E-4	
1740741023292	0.03677368	
1740741023293	0.055389404	
1740741023294	0.013961792	
1740741023295	-0.005645752	
1740741023296	-0.0022125244	
1740741023297	-0.019302368	
1740741023298	-0.021972656	
1740741023299	-0.024261475	
1740741023300	-0.048675537	
1740741023301	-0.08041382	
1740741023302	-0.04814148	
1740741023303	0.04257202	
1740741023304	0.09628296	
1740741023305	0.14312744	
1740741023306	0.13961792	
1740741023307	0.050125122	
1740741023308	0.0012207031	
1740741023309	-0.033187866	
1740741023310	-0.06385803	
1740741023311	-0.052490234	
1740741023312	-0.061569214	
1740741023313	-0.0617218	
1740741023314	-0.05783081	
1740741023315	-0.05104065	
1740741023316	-0.032577515	
1740741023317	-0.036849976	
1740741023318	-0.02822876	
1740741023319	-0.013885498	
1740741023320	-0.0050354004	
1740741023321	0.014953613	
1740741023322	0.020065308	
1740741023323	0.02494812	
1740741023324	0.036315918	
1740741023325	0.021057129	
1740741023326	0.007019043	
1740741023327	0.02357483	
1740741023328	0.02861023	
1740741023329	0.02319336	
1740741023330	0.02861023	
1740741023331	0.022659302	
1740741023332	0.015716553	
1740741023333	0.017089844	
1740741023334	0.012588501	
1740741023335	4.5776367E-4	
1740741023336	-0.0050354004	
1740741023337	0.00579834	
1740741023338	0.008468628	
1740741023339	0.0020599365	
1740741023340	-0.0037384033	
1740741023341	-0.057907104	
1740741023342	-0.19630432	
1740741023343	-0.26504517	
1740741023344	-0.10543823	
1740741023345	0.09994507	
1740741023346	0.29083252	
1740741023347	0.44021606	
1740741023348	0.2759552	
1740741023349	0.06851196	
1740741023350	0.012741089	
1740741023351	-0.0844574	
1740741023352	-0.09895325	
1740741023353	-0.09010315	
1740741023354	-0.12702942	
1740741023355	-0.102005005	
1740741023356	-0.05683899	
1740741023357	-0.003967285	
1740741023358	0.007095337	
1740741023359	-0.049591064	
1740741023360	-0.11390686	
1740741023361	-0.14976501	
1740741023362	-0.13526917	
1740741023363	-0.07865906	
1740741023364	-0.07545471	
1740741023365	-0.088272095	
1740741023366	0.035705566	
1740741023367	0.111312866	
1740741023368	0.06614685	
1740741023369	0.072250366	
1740741023370	0.06439209	
1740741023371	0.0566864	
1740741023372	0.062408447	
1740741023373	0.044174194	
1740741023374	0.060653687	
1740741023375	0.05508423	
1740741023376	0.020446777	
1740741023377	-0.011749268	
1740741023378	-0.025024414	
1740741023379	0.030059814	
1740741023380	0.09086609	
1740741023381	0.12428284	
1740741023382	0.09963989	
1740741023383	0.0015258789	
1740741023384	-0.04837036	
1740741023385	-0.072784424	
1740741023386	-0.08140564	
1740741023387	-0.041046143	
1740741023388	-0.044326782	
1740741023389	-0.026855469	
1740741023390	0.008773804	
1740741023391	-0.014724731	
1740741023392	-0.023651123	
1740741023393	0.0017547607	
1740741023394	0.020217896	
1740741023395	0.03189087	
1740741023396	0.012054443	
1740741023397	-0.04020691	
1740741023398	-0.04524231	
1740741023399	-0.034713745	
1740741023400	-0.036239624	
1740741023401	-0.01701355	
1740741023402	-0.01335144	
1740741023403	-0.012130737	
1740741023404	-0.009460449	
1740741023405	-0.005874634	
1740741023406	0.0022888184	
1740741023407	-0.0015258789	
1740741023408	0.0046539307	
1740741023409	0.012664795	
1740741023410	0.015945435	
1740741023411	0.022583008	
1740741023412	0.01701355	
1740741023413	0.013580322	
1740741023414	0.016784668	
1740741023415	0.013427734	
1740741023416	0.013656616	
1740741023417	0.015792847	
1740741023418	0.012969971	
1740741023419	0.010223389	
1740741023420	0.0016784668	
1740741023421	-0.00289917	
1740741023422	0.004272461	
1740741023423	0.0018310547	
1740741023424	-0.004043579	
1740741023425	-0.0037384033	
1740741023426	-0.0065612793	
1740741023427	-0.0063323975	
1740741023428	-0.0018310547	
1740741023429	7.6293945E-4	
1740741023430	0.0032043457	
1740741023431	0.0077819824	
1740741023432	0.007247925	
1740741023433	-0.005264282	
1740741023434	-0.015182495	
1740741023435	-0.014343262	
1740741023436	-0.010299683	
1740741023437	-0.0032806396	
1740741023438	-0.001373291	
1740741023439	-0.0033569336	
1740741023440	-0.004196167	
1740741023441	-0.004043579	
1740741023442	-0.0031280518	
1740741023443	-0.004119873	
1740741023444	-0.0037384033	
1740741023445	-5.340576E-4	
1740741023446	0.0074005127	
1740741023447	0.012512207	
1740741023448	0.0061035156	
1740741023449	-7.6293945E-5	
1740741023450	-0.006942749	
1740741023451	-0.023803711	
1740741023452	-0.022583008	
1740741023453	-3.0517578E-4	
1740741023454	0.0046539307	
1740741023455	-0.0033569336	
1740741023456	-0.0035858154	
1740741023457	-0.007019043	
1740741023458	0.0047302246	
1740741023459	0.055923462	
1740741023460	0.06782532	
1740741023461	0.016021729	
1740741023462	-0.0030517578	
1740741023463	-0.018157959	
1740741023464	-0.120391846	
1740741023465	-0.25917053	
1740741023466	-0.20820618	
1740741023467	0.036239624	
1740741023468	0.20423889	
1740741023469	0.3577423	
1740741023470	0.4007721	
1740741023471	0.2117157	
1740741023472	0.09460449	
1740741023473	-0.03677368	
1740741023474	-0.14152527	
1740741023475	-0.11581421	
1740741023476	-0.14671326	
1740741023477	-0.14511108	
1740741023478	-0.14709473	
1740741023479	-0.1637268	
1740741023480	-0.11985779	
1740741023481	-0.086517334	
1740741023482	-0.03768921	
1740741023483	-2.2888184E-4	
1740741023484	1.5258789E-4	
1740741023485	-0.014190674	
1740741023486	-0.0016021729	
1740741023487	0.028839111	
1740741023488	0.038223267	
1740741023489	0.04562378	
1740741023490	0.03501892	
1740741023491	0.04196167	
1740741023492	0.061950684	
1740741023493	0.052642822	
1740741023494	0.054855347	
1740741023495	0.06187439	
1740741023496	0.052108765	
1740741023497	0.027313232	
1740741023498	-0.0024414062	
1740741023499	-0.012817383	
1740741023500	-0.0029754639	
1740741023501	0.0059509277	
1740741023502	0.00289917	
1740741023503	0.0032806396	
1740741023504	0.0010681152	
1740741023505	-0.0074768066	
1740741023506	-0.0038146973	
1740741023507	-0.0015258789	
1740741023508	-0.0074768066	
1740741023509	-0.0077819824	
1740741023510	-0.007095337	
1740741023511	-0.010604858	
1740741023512	-0.0077056885	
1740741023513	-0.0077056885	
1740741023514	-0.0132751465	
1740741023515	-0.011291504	
1740741023516	-0.011749268	
1740741023517	-0.013885498	
1740741023518	-0.011978149	
1740741023519	-0.00541687	
1740741023520	6.866455E-4	
1740741023521	-0.004043579	
1740741023522	-0.0074005127	
1740741023523	-0.0019073486	
1740741023524	-2.2888184E-4	
1740741023525	-0.0018310547	
1740741023526	-0.0035095215	
1740741023527	-0.0012969971	
1740741023528	0.0017547607	
1740741023529	-6.866455E-4	
1740741023530	2.2888184E-4	
1740741023531	0.0	
1740741023532	0.004425049	
1740741023533	0.0064086914	
1740741023534	-0.0024414062	
1740741023535	-0.001449585	
1740741023536	5.340576E-4	
1740741023537	0.0010681152	
1740741023538	0.0051879883	
1740741023539	0.009460449	
1740741023540	0.011367798	
1740741023541	0.0048828125	
1740741023542	-6.866455E-4	
1740741023543	-0.0035858154	
1740741023544	-0.0032043457	
1740741023545	-0.0032043457	
1740741023546	-0.0035858154	
1740741023547	-0.0037384033	
1740741023548	-0.0038909912	
1740741023549	-0.0033569336	
1740741023550	-0.003967285	
1740741023551	0.0030517578	
1740741023552	-0.0051116943	
1740741023553	-0.020599365	
1740741023554	-0.009002686	
1740741023555	0.013885498	
1740741023556	0.04272461	
1740741023557	0.029754639	
1740741023558	-0.00869751	
1740741023559	0.013427734	
1740741023560	0.030517578	
1740741023561	1.5258789E-4	
1740741023562	-0.02998352	
1740741023563	-0.06072998	
1740741023564	-0.08148193	
1740741023565	-0.021896362	
1740741023566	0.0818634	
1740741023567	0.11955261	
1740741023568	0.108795166	
1740741023569	0.033950806	
1740741023570	-0.0491333	
1740741023571	-0.058288574	
1740741023572	-0.06385803	
1740741023573	-0.037078857	
1740741023574	-0.0012969971	
1740741023575	-0.007019043	
1740741023576	-0.02204895	
1740741023577	-0.03677368	
1740741023578	-0.017929077	
1740741023579	0.0017547607	
1740741023580	-0.008392334	
1740741023581	-0.014572144	
1740741023582	-0.016098022	
1740741023583	-0.01159668	
1740741023584	-0.0051116943	
1740741023585	0.001449585	
1740741023586	0.012130737	
1740741023587	0.011138916	
1740741023588	0.008544922	
1740741023589	0.0118255615	
1740741023590	0.008926392	
1740741023591	0.012817383	
1740741023592	0.017318726	
1740741023593	0.021362305	
1740741023594	0.024642944	
1740741023595	0.021133423	
1740741023596	0.018692017	
1740741023597	0.013504028	
1740741023598	0.004196167	
1740741023599	-0.005645752	
1740741023600	-0.004196167	
1740741023601	0.0033569336	
1740741023602	0.0015258789	
1740741023603	-1.5258789E-4	
1740741023604	0.0023651123	
1740741023605	0.0024414062	
1740741023606	-0.0031280518	
1740741023607	-0.007095337	
1740741023608	-0.0035858154	
1740741023609	-0.005645752	
1740741023610	-0.008926392	
1740741023611	-0.005340576	
1740741023612	-0.0025939941	
1740741023613	0.0	
1740741023614	-0.0064849854	
1740741023615	-0.010910034	
1740741023616	-0.0076293945	
1740741023617	-0.01083374	
1740741023618	-0.004119873	
1740741023619	-0.005340576	
1740741023620	-0.0076293945	
1740741023621	-0.0031280518	
1740741023622	-0.0064849854	
1740741023623	-9.1552734E-4	
1740741023624	0.0035095215	
1740741023625	0.0019836426	
1740741023626	-0.00289917	
1740741023627	-0.0076293945	
1740741023628	-0.005569458	
1740741023629	-0.0034332275	
1740741023630	0.0064849854	
1740741023631	0.010681152	
1740741023632	0.0047302246	
1740741023633	0.007019043	
1740741023634	0.010375977	
1740741023635	0.009231567	
1740741023636	0.007171631	
1740741023637	-7.6293945E-4	
1740741023638	-0.002746582	
1740741023639	-0.004043579	
1740741023640	-0.010299683	
1740741023641	-0.007247925	
1740741023642	-0.042037964	
1740741023643	-0.16403198	
1740741023644	-0.2532959	
1740741023645	-0.14518738	
1740741023646	0.07987976	
1740741023647	0.33477783	
1740741023648	0.4850769	
1740741023649	0.30151367	
1740741023650	0.10475159	
1740741023651	0.0390625	
1740741023652	-0.102386475	
1740741023653	-0.12527466	
1740741023654	-0.105895996	
1740741023655	-0.1260376	
1740741023656	-0.10795593	
1740741023657	-0.10887146	
1740741023658	-0.08857727	
1740741023659	-0.072784424	
1740741023660	-0.10932922	
1740741023661	-0.111083984	
1740741023662	-0.042648315	
1740741023663	0.034332275	
1740741023664	0.07774353	
1740741023665	0.0541687	
1740741023666	-0.011291504	
1740741023667	-0.014724731	
1740741023668	0.0340271	
1740741023669	0.07095337	
1740741023670	0.05897522	
1740741023671	0.012512207	
1740741023672	0.001373291	
1740741023673	0.002822876	
1740741023674	-0.00289917	
1740741023675	0.0011444092	
1740741023676	0.0030517578	
1740741023677	0.010757446	
1740741023678	0.0074768066	
1740741023679	-0.0016021729	
1740741023680	0.0076293945	
1740741023681	0.013656616	
1740741023682	0.018310547	
1740741023683	0.027160645	
1740741023684	0.02998352	
1740741023685	0.025024414	
1740741023686	0.0033569336	
1740741023687	-0.0037384033	
1740741023688	0.0018310547	
1740741023689	-0.012207031	
1740741023690	-0.010223389	
1740741023691	-4.5776367E-4	
1740741023692	-0.011062622	
1740741023693	-0.010681152	
1740741023694	7.6293945E-4	
1740741023695	-0.001449585	
1740741023696	-0.00869751	
1740741023697	-0.0076293945	
1740741023698	-0.0035095215	
1740741023699	-0.013198853	
1740741023700	-0.012817383	
1740741023701	-0.0063323975	
1740741023702	-0.0046539307	
1740741023703	-4.5776367E-4	
1740741023704	-0.008239746	
1740741023705	-0.0119018555	
1740741023706	-0.010604858	
1740741023707	-0.0075531006	
1740741023708	0.010986328	
1740741023709	0.023880005	
1740741023710	0.02128601	
1740741023711	0.009307861	
1740741023712	0.0077056885	
1740741023713	-0.0035095215	
1740741023714	-0.010910034	
1740741023715	-0.0016784668	
1740741023716	-0.010986328	
1740741023717	-0.013961792	
1740741023718	-0.009765625	
1740741023719	-0.004272461	
1740741023720	-0.0024414062	
1740741023721	-0.0046539307	
1740741023722	-0.007095337	
1740741023723	-0.0074005127	
1740741023724	-0.008010864	
1740741023725	-0.023345947	
1740741023726	-0.046081543	
1740741023727	-0.038757324	
1740741023728	0.008087158	
1740741023729	0.063323975	
1740741023730	0.11047363	
1740741023731	0.10940552	
1740741023732	0.031661987	
1740741023733	-0.013885498	
1740741023734	-0.02166748	
1740741023735	-0.058670044	
1740741023736	-0.051193237	
1740741023737	-0.02418518	
1740741023738	-0.016326904	
1740741023739	-0.0065612793	
1740741023740	-0.00793457	
1740741023741	-0.008087158	
1740741023742	-0.004501343	
1740741023743	0.0	
1740741023744	-0.0020599365	
1740741023745	-0.002822876	
1740741023746	-0.0025177002	
1740741023747	7.6293945E-4	
1740741023748	0.0066375732	
1740741023749	0.010375977	
1740741023750	0.010681152	
1740741023751	0.005264282	
1740741023752	0.0033569336	
1740741023753	0.0059509277	
1740741023754	0.0059509277	
1740741023755	0.0011444092	
1740741023756	0.0036621094	
1740741023757	8.392334E-4	
1740741023758	-0.012664795	
1740741023759	-0.03326416	
1740741023760	-0.043029785	
1740741023761	-0.018157959	
1740741023762	0.032196045	
1740741023763	0.07400513	
1740741023764	0.064697266	
1740741023765	0.014266968	
1740741023766	-0.02418518	
1740741023767	-0.042495728	
1740741023768	-0.015945435	
1740741023769	0.03555298	
1740741023770	0.06889343	
1740741023771	0.060272217	
1740741023772	-0.012817383	
1740741023773	-0.038757324	
1740741023774	-0.021591187	
1740741023775	-0.03189087	
1740741023776	-0.03967285	
1740741023777	-0.053710938	
1740741023778	-0.044403076	
1740741023779	-0.028839111	
1740741023780	-0.0017547607	
1740741023781	0.05317688	
1740741023782	0.04119873	
1740741023783	0.00289917	
1740741023784	-0.01121521	
1740741023785	-0.017547607	
1740741023786	-0.010147095	
1740741023787	-0.013961792	
1740741023788	-0.0075531006	
1740741023789	0.0032806396	
1740741023790	-0.0025177002	
1740741023791	0.0	
1740741023792	-0.005264282	
1740741023793	-0.013809204	
1740741023794	-0.0019836426	
1740741023795	0.00579834	
1740741023796	0.005340576	
1740741023797	0.015487671	
1740741023798	0.017166138	
1740741023799	0.01335144	
1740741023800	0.020065308	
1740741023801	0.012893677	
1740741023802	0.009460449	
1740741023803	0.016555786	
1740741023804	0.0019073486	
1740741023805	0.0019836426	
1740741023806	0.0038146973	
1740741023807	-0.006942749	
1740741023808	-0.0066375732	
1740741023809	-0.003967285	
1740741023810	0.0025939941	
1740741023811	0.008926392	
1740741023812	0.01449585	
1740741023813	0.017242432	
1740741023814	0.007019043	
1740741023815	-0.006942749	
1740741023816	-0.020446777	
1740741023817	-0.021362305	
1740741023818	-0.010910034	
1740741023819	-0.013122559	
1740741023820	-0.011978149	
1740741023821	-0.015487671	
1740741023822	-0.03265381	
1740741023823	-0.02357483	
1740741023824	0.004043579	
1740741023825	0.014038086	
1740741023826	0.01777649	
1740741023827	0.023727417	
1740741023828	0.022659302	
1740741023829	0.010528564	
1740741023830	-0.006790161	
1740741023831	-0.0012207031	
1740741023832	-7.6293945E-5	
1740741023833	-0.022354126	
1740741023834	-0.024337769	
1740741023835	-0.013961792	
1740741023836	0.0146484375	
1740741023837	0.043182373	
1740741023838	0.023498535	
1740741023839	-0.027542114	
1740741023840	-0.03982544	
1740741023841	-0.015640259	
1740741023842	0.0064086914	
1740741023843	0.033111572	
1740741023844	0.048446655	
1740741023845	0.030212402	
1740741023846	-0.00541687	
1740741023847	-0.015182495	
1740741023848	-0.020828247	
1740741023849	-0.02281189	
1740741023850	-0.014801025	
1740741023851	-0.013504028	
1740741023852	-0.013580322	
1740741023853	-0.006942749	
1740741023854	-0.00579834	
1740741023855	-0.0060272217	
1740741023856	7.6293945E-5	
1740741023857	0.0015258789	
1740741023858	0.0023651123	
1740741023859	0.0032043457	
1740741023860	0.0021362305	
1740741023861	0.005722046	
1740741023862	0.0048828125	
1740741023863	0.0025177002	
1740741023864	0.0061798096	
1740741023865	0.0034332275	
1740741023866	0.0119018555	
1740741023867	0.014190674	
1740741023868	0.0022888184	
1740741023869	0.0059509277	
1740741023870	0.004425049	
1740741023871	-0.0048065186	
1740741023872	0.0015258789	
1740741023873	0.0050354004	
1740741023874	0.0010681152	
1740741023875	-0.002670288	
1740741023876	-8.392334E-4	
1740741023877	-0.014343262	
1740741023878	-0.027160645	
1740741023879	-0.02281189	
1740741023880	-0.017929077	
1740741023881	-0.014801025	
1740741023882	-0.0062561035	
1740741023883	0.0074768066	
1740741023884	0.041046143	
1740741023885	0.119018555	
1740741023886	0.070114136	
1740741023887	-0.17066956	
1740741023888	-0.24719238	
1740741023889	-0.09674072	
1740741023890	0.039138794	
1740741023891	0.26435852	
1740741023892	0.37612915	
1740741023893	0.17524719	
1740741023894	0.06713867	
1740741023895	0.0048065186	
1740741023896	-0.11779785	
1740741023897	-0.11886597	
1740741023898	-0.1121521	
1740741023899	-0.1071167	
1740741023900	-0.07865906	
1740741023901	-0.08735657	
1740741023902	-0.07316589	
1740741023903	-0.05722046	
1740741023904	-0.049362183	
1740741023905	-0.03578186	
1740741023906	-0.03501892	
1740741023907	-0.022201538	
1740741023908	-0.007095337	
1740741023909	0.0034332275	
1740741023910	0.017318726	
1740741023911	0.021896362	
1740741023912	0.027923584	
1740741023913	0.038528442	
1740741023914	0.0415802	
1740741023915	0.038604736	
1740741023916	0.04005432	
1740741023917	0.043182373	
1740741023918	0.041122437	
1740741023919	0.03501892	
1740741023920	0.028839111	
1740741023921	0.027313232	
1740741023922	0.024642944	
1740741023923	0.022125244	
1740741023924	0.0118255615	
1740741023925	0.0015258789	
1740741023926	0.0022125244	
1740741023927	-0.0035858154	
1740741023928	-0.0047302246	
1740741023929	-0.001449585	
1740741023930	-0.0064086914	
1740741023931	-0.01335144	
1740741023932	-0.01625061	
1740741023933	-0.015029907	
1740741023934	-0.009384155	
1740741023935	-0.013427734	
1740741023936	-0.016784668	
1740741023937	-0.009994507	
1740741023938	-0.015792847	
1740741023939	-0.01663208	
1740741023940	-0.014801025	
1740741023941	-0.012817383	
1740741023942	-0.0065612793	
1740741023943	-0.0062561035	
1740741023944	-0.0045776367	
1740741023945	-0.004425049	
1740741023946	-0.005264282	
1740741023947	0.0016784668	
1740741023948	0.0038146973	
1740741023949	-0.0019836426	
1740741023950	0.0012969971	
1740741023951	0.01121521	
1740741023952	0.00793457	
1740741023953	-0.0016784668	
1740741023954	-0.006866455	
1740741023955	-0.008621216	
1740741023956	-0.009002686	
1740741023957	-0.028152466	
1740741023958	-0.049209595	
1740741023959	-0.04058838	
1740741023960	-0.027313232	
1740741023961	-0.0035858154	
1740741023962	0.042800903	
1740741023963	0.086135864	
1740741023964	0.109939575	
1740741023965	0.13771057	
1740741023966	0.12786865	
1740741023967	0.050811768	
1740741023968	-0.0051116943	
1740741023969	-0.025253296	
1740741023970	-0.037612915	
1740741023971	-0.022888184	
1740741023972	-0.011444092	
1740741023973	-0.009384155	
1740741023974	-0.056915283	
1740741023975	-0.15441895	
1740741023976	-0.17539978	
1740741023977	-0.11154175	
1740741023978	-0.052719116	
1740741023979	-0.05493164	
1740741023980	-0.05508423	
1740741023981	0.021133423	
1740741023982	0.055160522	
1740741023983	0.03135681	
1740741023984	0.036087036	
1740741023985	0.030899048	
1740741023986	0.036239624	
1740741023987	0.056610107	
1740741023988	0.04234314	
1740741023989	0.04272461	
1740741023990	0.04837036	
1740741023991	0.038223267	
1740741023992	0.038909912	
1740741023993	0.038528442	
1740741023994	0.026397705	
1740741023995	0.0118255615	
1740741023996	0.00793457	
1740741023997	0.0065612793	
1740741023998	6.866455E-4	
1740741023999	-0.0017547607	
1740741024000	-0.0051116943	
1740741024001	-0.008926392	
1740741024002	-0.010681152	
1740741024003	-0.0146484375	
1740741024004	-0.014953613	
1740741024005	-0.014572144	
1740741024006	-0.021133423	
1740741024007	-0.02067566	
1740741024008	-0.016326904	
1740741024009	-0.014343262	
1740741024010	-0.013809204	
1740741024011	-0.024108887	
1740741024012	-0.020751953	
1740741024013	-0.012130737	
1740741024014	-0.01335144	
1740741024015	-0.0077819824	
1740741024016	2.2888184E-4	
1740741024017	-0.0016021729	
1740741024018	-0.009536743	
1740741024019	-0.013198853	
1740741024020	-0.023651123	
1740741024021	-0.021896362	
1740741024022	0.009155273	
1740741024023	0.019454956	
1740741024024	0.01953125	
1740741024025	0.026779175	
1740741024026	0.021896362	
1740741024027	0.01953125	
1740741024028	0.015106201	
1740741024029	0.017318726	
1740741024030	0.01411438	
1740741024031	0.0033569336	
1740741024032	0.009994507	
1740741024033	0.010147095	
1740741024034	0.0032806396	
1740741024035	0.003967285	
1740741024036	1.5258789E-4	
1740741024037	-0.009994507	
1740741024038	-0.0045776367	
1740741024039	-0.0021362305	
1740741024040	-0.0024414062	
1740741024041	0.002822876	
1740741024042	-0.009155273	
1740741024043	-0.021133423	
1740741024044	-0.017623901	
1740741024045	-0.010528564	
1740741024046	-0.0032043457	
1740741024047	0.0019073486	
1740741024048	0.009384155	
1740741024049	0.0064849854	
1740741024050	-0.0019073486	
1740741024051	-0.009460449	
1740741024052	-0.020980835	
1740741024053	-0.019073486	
1740741024054	0.0019073486	
1740741024055	0.010528564	
1740741024056	-0.0065612793	
1740741024057	-0.017089844	
1740741024058	-0.014572144	
1740741024059	-0.001449585	
1740741024060	0.009384155	
1740741024061	0.027694702	
1740741024062	0.0365448	
1740741024063	0.005264282	
1740741024064	-0.0104522705	
1740741024065	0.011444092	
1740741024066	0.04310608	
1740741024067	0.04890442	
1740741024068	-2.2888184E-4	
1740741024069	-0.021820068	
1740741024070	-0.0064086914	
1740741024071	-0.014190674	
1740741024072	-0.014953613	
1740741024073	-0.026473999	
1740741024074	-0.06278992	
1740741024075	-0.06011963	
1740741024076	-0.00541687	
1740741024077	0.052337646	
1740741024078	0.0819397	
1740741024079	0.059661865	
1740741024080	-0.0032043457	
1740741024081	-0.018157959	
1740741024082	-0.015106201	
1740741024083	-0.027389526	
1740741024084	-0.019989014	
1740741024085	-0.020065308	
1740741024086	-0.016708374	
1740741024087	-0.010147095	
1740741024088	-0.0118255615	
1740741024089	-0.0024414062	
1740741024090	-9.918213E-4	
1740741024091	-0.0019073486	
1740741024092	0.0061798096	
1740741024093	0.0033569336	
1740741024094	0.004272461	
1740741024095	0.0074768066	
1740741024096	0.0017547607	
1740741024097	-0.0020599365	
1740741024098	0.0063323975	
1740741024099	0.017318726	
1740741024100	0.010147095	
1740741024101	0.006866455	
1740741024102	0.006866455	
1740741024103	-8.392334E-4	
1740741024104	-0.010681152	
1740741024105	-0.004043579	
1740741024106	0.009765625	
1740741024107	-0.022201538	
1740741024108	-0.046157837	
1740741024109	-0.0021362305	
1740741024110	0.029449463	
1740741024111	0.048065186	
1740741024112	0.10520935	
1740741024113	0.11276245	
1740741024114	0.023040771	
1740741024115	-0.054779053	
1740741024116	-0.06896973	
1740741024117	-0.059661865	
1740741024118	-0.041656494	
1740741024119	-0.01411438	
1740741024120	0.012588501	
1740741024121	0.034103394	
1740741024122	0.030822754	
1740741024123	-0.01411438	
1740741024124	-0.05050659	
1740741024125	-0.10246277	
1740741024126	-0.21575928	
1740741024127	-0.23017883	
1740741024128	-0.06828308	
1740741024129	0.11161804	
1740741024130	0.31417847	
1740741024131	0.36941528	
1740741024132	0.1511383	
1740741024133	0.046539307	
1740741024134	0.023651123	
1740741024135	-0.04928589	
1740741024136	-0.0655365	
1740741024137	-0.10482788	
1740741024138	-0.1133728	
1740741024139	-0.08155823	
1740741024140	-0.0667572	
1740741024141	-0.03967285	
1740741024142	-0.029525757	
1740741024143	-0.02532959	
1740741024144	-0.01991272	
1740741024145	-0.013961792	
1740741024146	-0.006713867	
1740741024147	-0.022659302	
1740741024148	-0.026931763	
1740741024149	0.010986328	
1740741024150	0.06111145	
1740741024151	0.09376526	
1740741024152	0.05973816	
1740741024153	0.0035858154	
1740741024154	0.0066375732	
1740741024155	0.012435913	
