# OpenSignals Text File Format
# {"00:80:E1:26:A1:B0":{"sensor":["EMG"],"device name":"00:80:E1:26:A1:B0","column":["timestamp","EMG"],"sync interval":2,"time":"11:46:52","comments":"","keywords":"","device connection":"BLE00:80:E1:26:A1:B0","channels":[0],"date":"2025-01-17","mode":0,"digital IO":[],"firmware version":259,"device":"musclebanplux","position":0,"sampling rate":1000,"label":["EMG"],"resolution":[16],"special":[{}],"sleeve color":["UNKNOWN"]}}
# EndOfHeader
1737110812920	0.009460449	
1737110812921	0.010528564	
1737110812922	-0.0046539307	
1737110812923	-0.003967285	
1737110812924	0.021362305	
1737110812925	0.036849976	
1737110812926	0.032958984	
1737110812927	0.02281189	
1737110812928	0.0065612793	
1737110812929	-0.012054443	
1737110812930	-0.008239746	
1737110812931	0.0048065186	
1737110812932	0.015640259	
1737110812933	0.05470276	
1737110812934	0.079193115	
1737110812935	0.024261475	
1737110812936	-0.040359497	
1737110812937	-0.09590149	
1737110812938	-0.17539978	
1737110812939	-0.16212463	
1737110812940	-0.021820068	
1737110812941	0.06340027	
1737110812942	0.04600525	
1737110812943	0.04119873	
1737110812944	0.044174194	
1737110812945	0.03967285	
1737110812946	0.029449463	
1737110812947	0.006713867	
1737110812948	0.025634766	
1737110812949	0.037994385	
1737110812950	0.02204895	
1737110812951	0.014419556	
1737110812952	0.0077819824	
1737110812953	0.0065612793	
1737110812954	-0.01449585	
1737110812955	-0.023117065	
1737110812956	-0.0035095215	
1737110812957	-0.017547607	
1737110812958	-0.016021729	
1737110812959	-0.011062622	
1737110812960	-0.03868103	
1737110812961	-0.015945435	
1737110812962	0.054855347	
1737110812963	0.15533447	
1737110812964	0.2078247	
1737110812965	0.12802124	
1737110812966	-0.020370483	
1737110812967	-0.23971558	
1737110812968	-0.40107727	
1737110812969	-0.30654907	
1737110812970	-0.08583069	
1737110812971	0.020904541	
1737110812972	0.05126953	
1737110812973	0.10368347	
1737110812974	0.13885498	
1737110812975	0.14266968	
1737110812976	0.10246277	
1737110812977	0.046691895	
1737110812978	-0.009384155	
1737110812979	-0.08018494	
1737110812980	-0.06309509	
1737110812981	0.026931763	
1737110812982	0.047912598	
1737110812983	0.038909912	
1737110812984	0.04875183	
1737110812985	0.03883362	
1737110812986	0.027770996	
1737110812987	0.021591187	
1737110812988	0.009689331	
1737110812989	-0.014190674	
1737110812990	-0.044631958	
1737110812991	-0.013122559	
1737110812992	0.036315918	
1737110812993	0.04310608	
1737110812994	0.04425049	
1737110812995	0.029754639	
1737110812996	0.027389526	
1737110812997	0.005340576	
1737110812998	-0.0718689	
1737110812999	-0.13313293	
1737110813000	-0.14457703	
1737110813001	-0.17242432	
1737110813002	-0.18875122	
1737110813003	-0.052719116	
1737110813004	0.050735474	
1737110813005	0.040664673	
1737110813006	0.05760193	
1737110813007	0.053024292	
1737110813008	0.06515503	
1737110813009	0.0793457	
1737110813010	0.056533813	
1737110813011	0.05203247	
1737110813012	0.035476685	
1737110813013	0.033416748	
1737110813014	0.055770874	
1737110813015	0.0592041	
1737110813016	0.034484863	
1737110813017	0.008926392	
1737110813018	0.002822876	
1737110813019	-0.010147095	
1737110813020	-0.015335083	
1737110813021	-0.01739502	
1737110813022	-0.0049591064	
1737110813023	0.03189087	
1737110813024	0.02494812	
1737110813025	-0.037841797	
1737110813026	-0.07095337	
1737110813027	-0.003967285	
1737110813028	0.06904602	
1737110813029	0.064315796	
1737110813030	-0.0015258789	
1737110813031	-0.16815186	
1737110813032	-0.31326294	
1737110813033	-0.27389526	
1737110813034	-0.122909546	
1737110813035	0.009841919	
1737110813036	0.069732666	
1737110813037	0.092926025	
1737110813038	0.11512756	
1737110813039	0.12641907	
1737110813040	0.10719299	
1737110813041	0.08621216	
1737110813042	0.08644104	
1737110813043	0.05455017	
1737110813044	0.025177002	
1737110813045	0.03074646	
1737110813046	0.026779175	
1737110813047	0.0146484375	
1737110813048	0.018005371	
1737110813049	0.012588501	
1737110813050	-0.0074005127	
1737110813051	-0.016937256	
1737110813052	-0.01739502	
1737110813053	-0.023117065	
1737110813054	-0.026397705	
1737110813055	-0.026321411	
1737110813056	-0.032577515	
1737110813057	-0.03326416	
1737110813058	-0.028305054	
1737110813059	-0.02456665	
1737110813060	-0.018844604	
1737110813061	-0.017623901	
1737110813062	-0.017242432	
1737110813063	-0.011367798	
1737110813064	-0.016326904	
1737110813065	-0.022888184	
1737110813066	-0.0064086914	
1737110813067	0.001373291	
1737110813068	-0.0022888184	
1737110813069	0.008850098	
1737110813070	0.020599365	
1737110813071	0.020446777	
1737110813072	0.013122559	
1737110813073	0.007247925	
1737110813074	0.0074005127	
1737110813075	0.012130737	
1737110813076	7.6293945E-4	
1737110813077	0.0104522705	
1737110813078	0.08552551	
1737110813079	0.086364746	
1737110813080	-0.0017547607	
1737110813081	-0.07850647	
1737110813082	-0.19065857	
1737110813083	-0.17692566	
1737110813084	-0.0075531006	
1737110813085	0.035629272	
1737110813086	0.003967285	
1737110813087	0.011444092	
1737110813088	0.02029419	
1737110813089	0.05607605	
1737110813090	0.08605957	
1737110813091	0.09185791	
1737110813092	0.11192322	
1737110813093	0.09361267	
1737110813094	0.025787354	
1737110813095	-0.005264282	
1737110813096	-0.00579834	
1737110813097	-0.0035858154	
1737110813098	0.0015258789	
1737110813099	-0.012359619	
1737110813100	-0.025634766	
1737110813101	-0.04234314	
1737110813102	-0.03555298	
1737110813103	0.005874634	
1737110813104	0.021362305	
1737110813105	-0.0019836426	
1737110813106	-0.036315918	
1737110813107	-0.095825195	
1737110813108	-0.16365051	
1737110813109	-0.1361084	
1737110813110	-0.034866333	
1737110813111	0.014038086	
1737110813112	0.030593872	
1737110813113	0.045776367	
1737110813114	0.034866333	
1737110813115	0.031661987	
1737110813116	0.044708252	
1737110813117	0.059127808	
1737110813118	0.041809082	
1737110813119	-0.012741089	
1737110813120	-0.016326904	
1737110813121	0.012283325	
1737110813122	0.016098022	
1737110813123	0.021591187	
1737110813124	0.018539429	
1737110813125	0.013885498	
1737110813126	0.011672974	
1737110813127	0.007095337	
1737110813128	0.009689331	
1737110813129	0.003967285	
1737110813130	0.001373291	
1737110813131	-1.5258789E-4	
1737110813132	-0.0016021729	
1737110813133	0.0033569336	
1737110813134	-0.004119873	
1737110813135	-0.011749268	
1737110813136	-0.012359619	
1737110813137	-0.012512207	
1737110813138	-0.009307861	
1737110813139	-0.009460449	
1737110813140	-0.010528564	
1737110813141	-0.009841919	
1737110813142	-0.007019043	
1737110813143	-0.007171631	
1737110813144	-0.005264282	
1737110813145	0.0025939941	
1737110813146	0.001449585	
1737110813147	0.004119873	
1737110813148	0.004348755	
1737110813149	-0.0048828125	
1737110813150	-0.009384155	
1737110813151	-0.00793457	
1737110813152	-0.0048828125	
1737110813153	-0.004119873	
1737110813154	0.003967285	
1737110813155	0.018081665	
1737110813156	0.041122437	
1737110813157	0.059051514	
1737110813158	0.032424927	
1737110813159	-0.00831604	
1737110813160	-0.06713867	
1737110813161	-0.12657166	
1737110813162	-0.09132385	
1737110813163	-0.016021729	
1737110813164	0.012359619	
1737110813165	0.02204895	
1737110813166	0.033111572	
1737110813167	0.033569336	
1737110813168	0.022659302	
1737110813169	0.021591187	
1737110813170	0.033340454	
1737110813171	0.045928955	
1737110813172	0.046691895	
1737110813173	0.020980835	
1737110813174	3.8146973E-4	
1737110813175	0.004196167	
1737110813176	0.005264282	
1737110813177	-0.021057129	
1737110813178	-0.045700073	
1737110813179	-0.019073486	
1737110813180	-0.0062561035	
1737110813181	-0.018234253	
1737110813182	0.004272461	
1737110813183	0.014877319	
1737110813184	0.0064086914	
1737110813185	-0.001373291	
1737110813186	-0.011138916	
1737110813187	-0.011444092	
1737110813188	-0.01625061	
1737110813189	-0.00579834	
1737110813190	0.0020599365	
1737110813191	-0.0019836426	
1737110813192	0.005340576	
1737110813193	-0.0020599365	
1737110813194	-0.004348755	
1737110813195	0.0019073486	
1737110813196	-0.0022888184	
1737110813197	0.021209717	
1737110813198	0.07171631	
1737110813199	0.083999634	
1737110813200	0.026397705	
1737110813201	-0.0466156	
1737110813202	-0.122299194	
1737110813203	-0.1676178	
1737110813204	-0.114974976	
1737110813205	-0.023040771	
1737110813206	0.050201416	
1737110813207	0.08880615	
1737110813208	0.112457275	
1737110813209	0.13572693	
1737110813210	0.07499695	
1737110813211	-0.022125244	
1737110813212	-0.1197052	
1737110813213	-0.20576477	
1737110813214	-0.10559082	
1737110813215	0.048446655	
1737110813216	0.05683899	
1737110813217	0.055923462	
1737110813218	0.055541992	
1737110813219	0.030059814	
1737110813220	0.08026123	
1737110813221	0.1739502	
1737110813222	0.19371033	
1737110813223	0.06362915	
1737110813224	-0.08293152	
1737110813225	-0.19515991	
1737110813226	-0.29029846	
1737110813227	-0.19432068	
1737110813228	-0.028381348	
1737110813229	0.020599365	
1737110813230	0.03982544	
1737110813231	0.051727295	
1737110813232	0.04699707	
1737110813233	0.09124756	
1737110813234	0.11260986	
1737110813235	0.05104065	
1737110813236	0.030136108	
1737110813237	0.03387451	
1737110813238	0.0051879883	
1737110813239	0.035247803	
1737110813240	0.078430176	
1737110813241	0.03501892	
1737110813242	-0.057373047	
1737110813243	-0.12771606	
1737110813244	-0.19073486	
1737110813245	-0.20767212	
1737110813246	-0.072402954	
1737110813247	0.04234314	
1737110813248	0.054016113	
1737110813249	0.07575989	
1737110813250	0.04852295	
1737110813251	0.021896362	
1737110813252	0.00793457	
1737110813253	-0.007095337	
1737110813254	0.037384033	
1737110813255	0.031204224	
1737110813256	0.015792847	
1737110813257	0.03730774	
1737110813258	0.019073486	
1737110813259	0.017852783	
1737110813260	0.016708374	
1737110813261	0.0033569336	
1737110813262	-0.0033569336	
1737110813263	-0.028686523	
1737110813264	-0.026626587	
1737110813265	0.004272461	
1737110813266	0.035705566	
1737110813267	0.047225952	
1737110813268	0.015182495	
1737110813269	-0.03135681	
1737110813270	-0.09666443	
1737110813271	-0.12397766	
1737110813272	-0.05996704	
1737110813273	-0.0077819824	
1737110813274	0.019073486	
1737110813275	0.044174194	
1737110813276	0.03593445	
1737110813277	-0.003967285	
1737110813278	-0.017166138	
1737110813279	0.026626587	
1737110813280	0.030059814	
1737110813281	0.013198853	
1737110813282	0.024261475	
1737110813283	0.019989014	
1737110813284	0.020599365	
1737110813285	0.018692017	
1737110813286	0.007095337	
1737110813287	-0.001449585	
1737110813288	-9.918213E-4	
1737110813289	0.007247925	
1737110813290	8.392334E-4	
1737110813291	-9.1552734E-4	
1737110813292	-0.0019073486	
1737110813293	-0.009689331	
1737110813294	-0.0063323975	
1737110813295	-0.0073242188	
1737110813296	-0.010986328	
1737110813297	-0.00793457	
1737110813298	-0.01121521	
1737110813299	-0.015563965	
1737110813300	-0.015029907	
1737110813301	-0.010528564	
1737110813302	-0.009765625	
1737110813303	-0.009841919	
1737110813304	-0.0017547607	
1737110813305	0.0059509277	
1737110813306	0.011444092	
1737110813307	0.005645752	
1737110813308	-0.0038909912	
1737110813309	-0.00289917	
1737110813310	-0.0029754639	
1737110813311	7.6293945E-5	
1737110813312	0.031204224	
1737110813313	0.08781433	
1737110813314	0.10658264	
1737110813315	0.043411255	
1737110813316	-0.03303528	
1737110813317	-0.11985779	
1737110813318	-0.19889832	
1737110813319	-0.14579773	
1737110813320	-0.042495728	
1737110813321	0.0063323975	
1737110813322	0.039138794	
1737110813323	0.07987976	
1737110813324	0.14266968	
1737110813325	0.13801575	
1737110813326	0.064315796	
1737110813327	-0.01121521	
1737110813328	-0.12748718	
1737110813329	-0.17921448	
1737110813330	-0.057754517	
1737110813331	0.04638672	
1737110813332	0.030975342	
1737110813333	0.04600525	
1737110813334	0.07575989	
1737110813335	0.089416504	
1737110813336	0.08338928	
1737110813337	0.04447937	
1737110813338	0.010070801	
1737110813339	-0.018539429	
1737110813340	-0.032348633	
1737110813341	-0.016784668	
1737110813342	-0.00831604	
1737110813343	-0.021820068	
1737110813344	-0.034484863	
1737110813345	-0.044631958	
1737110813346	-0.03112793	
1737110813347	-0.0032806396	
1737110813348	-6.866455E-4	
1737110813349	-0.015029907	
1737110813350	-0.01663208	
1737110813351	-0.015640259	
1737110813352	-0.018234253	
1737110813353	-0.0077819824	
1737110813354	0.0	
1737110813355	-0.0025177002	
1737110813356	0.005874634	
1737110813357	0.0076293945	
1737110813358	-0.0030517578	
1737110813359	-0.0035858154	
1737110813360	-0.0045776367	
1737110813361	-0.0025177002	
1737110813362	0.004272461	
1737110813363	0.004043579	
1737110813364	0.005493164	
1737110813365	0.005493164	
1737110813366	0.005340576	
1737110813367	0.009841919	
1737110813368	0.014266968	
1737110813369	0.015258789	
1737110813370	0.009384155	
1737110813371	0.01083374	
1737110813372	0.018463135	
1737110813373	0.029144287	
1737110813374	0.017471313	
1737110813375	-0.016479492	
1737110813376	-0.03288269	
1737110813377	-0.04814148	
1737110813378	-0.038909912	
1737110813379	0.009384155	
1737110813380	0.017700195	
1737110813381	0.003967285	
1737110813382	0.012817383	
1737110813383	-0.0033569336	
1737110813384	-0.019760132	
1737110813385	-0.0023651123	
1737110813386	0.00289917	
1737110813387	0.0022888184	
1737110813388	0.026779175	
1737110813389	0.07034302	
1737110813390	0.09597778	
1737110813391	0.04798889	
1737110813392	-0.031661987	
1737110813393	-0.102996826	
1737110813394	-0.1474762	
1737110813395	-0.0868988	
1737110813396	0.009536743	
1737110813397	0.06591797	
1737110813398	0.105285645	
1737110813399	0.050964355	
1737110813400	-0.039138794	
1737110813401	-0.11154175	
1737110813402	-0.12519836	
1737110813403	0.011444092	
1737110813404	0.08453369	
1737110813405	0.019302368	
1737110813406	-0.051879883	
1737110813407	-0.103530884	
1737110813408	-0.039215088	
1737110813409	0.03929138	
1737110813410	0.06904602	
1737110813411	0.1260376	
1737110813412	0.14564514	
1737110813413	0.105895996	
1737110813414	0.041885376	
1737110813415	0.018463135	
1737110813416	0.026626587	
1737110813417	-0.006790161	
1737110813418	-0.060653687	
1737110813419	-0.059432983	
1737110813420	-0.029067993	
1737110813421	-0.031204224	
1737110813422	-0.027160645	
1737110813423	-0.021438599	
1737110813424	-0.032958984	
1737110813425	-0.03173828	
1737110813426	-0.033569336	
1737110813427	-0.027542114	
1737110813428	-0.0065612793	
1737110813429	-0.0017547607	
1737110813430	-0.0047302246	
1737110813431	-0.0074005127	
1737110813432	-0.0032043457	
1737110813433	0.0017547607	
1737110813434	0.0030517578	
1737110813435	6.1035156E-4	
1737110813436	-0.010681152	
1737110813437	-0.006713867	
1737110813438	0.008239746	
1737110813439	0.010757446	
1737110813440	0.007019043	
1737110813441	0.0045776367	
1737110813442	3.8146973E-4	
1737110813443	0.011444092	
1737110813444	0.017700195	
1737110813445	0.007858276	
1737110813446	0.014190674	
1737110813447	0.009307861	
1737110813448	0.0029754639	
1737110813449	0.012512207	
1737110813450	0.010147095	
1737110813451	0.006713867	
1737110813452	0.002670288	
1737110813453	-0.004501343	
1737110813454	-1.5258789E-4	
1737110813455	-0.0012969971	
1737110813456	0.0020599365	
1737110813457	0.0037384033	
1737110813458	-0.006942749	
1737110813459	-0.008544922	
1737110813460	-0.0036621094	
1737110813461	-0.0019073486	
1737110813462	0.017471313	
1737110813463	0.064468384	
1737110813464	0.09361267	
1737110813465	0.065078735	
1737110813466	-0.002670288	
1737110813467	-0.09101868	
1737110813468	-0.18318176	
1737110813469	-0.19325256	
1737110813470	-0.09857178	
1737110813471	-0.015487671	
1737110813472	0.024871826	
1737110813473	0.050735474	
1737110813474	0.059280396	
1737110813475	0.055007935	
1737110813476	0.04890442	
1737110813477	0.047912598	
1737110813478	0.03967285	
1737110813479	0.0289917	
1737110813480	0.0289917	
1737110813481	0.023803711	
1737110813482	0.015945435	
1737110813483	0.029373169	
1737110813484	0.0819397	
1737110813485	0.100250244	
1737110813486	0.039901733	
1737110813487	-0.023956299	
1737110813488	-0.1461029	
1737110813489	-0.24208069	
1737110813490	-0.12954712	
1737110813491	-0.0076293945	
1737110813492	0.005264282	
1737110813493	0.025863647	
1737110813494	0.031814575	
1737110813495	0.012512207	
1737110813496	0.011444092	
1737110813497	0.016708374	
1737110813498	0.028915405	
1737110813499	0.04371643	
1737110813500	0.04005432	
1737110813501	0.043792725	
1737110813502	0.026397705	
1737110813503	-0.0023651123	
1737110813504	-0.009307861	
1737110813505	-0.010375977	
1737110813506	-0.010528564	
1737110813507	-0.015640259	
1737110813508	-0.005493164	
1737110813509	0.009384155	
1737110813510	3.8146973E-4	
1737110813511	-0.0119018555	
1737110813512	-0.021362305	
1737110813513	-0.021057129	
1737110813514	-0.012741089	
1737110813515	-0.017166138	
1737110813516	-0.010757446	
1737110813517	-5.340576E-4	
1737110813518	0.010070801	
1737110813519	0.021209717	
1737110813520	0.028076172	
1737110813521	0.033798218	
1737110813522	0.015792847	
1737110813523	0.0046539307	
1737110813524	0.002670288	
1737110813525	-0.03593445	
1737110813526	-0.08522034	
1737110813527	-0.09902954	
1737110813528	-0.042419434	
1737110813529	0.024261475	
1737110813530	0.018997192	
1737110813531	0.015258789	
1737110813532	0.029678345	
1737110813533	0.026855469	
1737110813534	0.031585693	
1737110813535	0.026855469	
1737110813536	0.022964478	
1737110813537	0.031814575	
1737110813538	0.024108887	
1737110813539	0.011062622	
1737110813540	0.0045776367	
1737110813541	0.0022125244	
1737110813542	-0.0020599365	
1737110813543	-0.0061035156	
1737110813544	-0.004196167	
1737110813545	-0.0047302246	
1737110813546	-0.0035095215	
1737110813547	0.0012969971	
1737110813548	-0.004272461	
1737110813549	-0.010681152	
1737110813550	-0.01083374	
1737110813551	-0.0118255615	
1737110813552	-0.0146484375	
1737110813553	-0.011138916	
1737110813554	-0.006713867	
1737110813555	-0.0037384033	
1737110813556	0.004196167	
1737110813557	0.010604858	
1737110813558	0.026321411	
1737110813559	0.04386902	
1737110813560	0.024642944	
1737110813561	-0.015945435	
1737110813562	-0.07621765	
1737110813563	-0.13076782	
1737110813564	-0.083847046	
1737110813565	-0.009841919	
1737110813566	0.01159668	
1737110813567	0.04371643	
1737110813568	0.057907104	
1737110813569	0.050048828	
1737110813570	0.038909912	
1737110813571	2.2888184E-4	
1737110813572	0.006790161	
1737110813573	0.04020691	
1737110813574	-0.0049591064	
1737110813575	-0.03982544	
1737110813576	0.0036621094	
1737110813577	0.019378662	
1737110813578	0.014953613	
1737110813579	0.012283325	
1737110813580	-0.0064849854	
1737110813581	-0.0016021729	
1737110813582	0.009231567	
1737110813583	0.017852783	
1737110813584	0.017242432	
1737110813585	0.0074768066	
1737110813586	0.030670166	
1737110813587	0.09681702	
1737110813588	0.1651001	
1737110813589	0.12199402	
1737110813590	-0.027236938	
1737110813591	-0.22697449	
1737110813592	-0.39253235	
1737110813593	-0.30166626	
1737110813594	-0.092544556	
1737110813595	-0.023651123	
1737110813596	0.030670166	
1737110813597	0.080337524	
1737110813598	0.062561035	
1737110813599	0.060958862	
1737110813600	0.06736755	
1737110813601	0.07476807	
1737110813602	0.09017944	
1737110813603	0.13191223	
1737110813604	0.209198	
1737110813605	0.22109985	
1737110813606	0.12138367	
1737110813607	0.022354126	
1737110813608	-0.072402954	
1737110813609	-0.19065857	
1737110813610	-0.2243042	
1737110813611	-0.16899109	
1737110813612	-0.09941101	
1737110813613	-0.029220581	
1737110813614	0.0032043457	
1737110813615	0.004425049	
1737110813616	0.025100708	
1737110813617	0.028839111	
1737110813618	0.021591187	
1737110813619	0.02204895	
1737110813620	0.013885498	
1737110813621	0.018997192	
1737110813622	0.019073486	
1737110813623	0.01991272	
1737110813624	0.021133423	
1737110813625	0.00869751	
1737110813626	0.021057129	
1737110813627	0.06454468	
1737110813628	0.08552551	
1737110813629	0.047302246	
1737110813630	-0.016326904	
1737110813631	-0.10093689	
1737110813632	-0.20080566	
1737110813633	-0.16777039	
1737110813634	-0.028915405	
1737110813635	0.019989014	
1737110813636	0.023651123	
1737110813637	0.03303528	
1737110813638	0.0077056885	
1737110813639	-0.0065612793	
1737110813640	-0.006713867	
1737110813641	0.01083374	
1737110813642	0.064468384	
1737110813643	0.08956909	
1737110813644	0.07064819	
1737110813645	0.07965088	
1737110813646	0.062561035	
1737110813647	-0.02166748	
1737110813648	-0.038757324	
1737110813649	0.0049591064	
1737110813650	0.015640259	
1737110813651	0.0048828125	
1737110813652	-0.017547607	
1737110813653	-0.03540039	
1737110813654	-0.033798218	
1737110813655	-0.0289917	
1737110813656	-0.023345947	
1737110813657	-0.016708374	
1737110813658	-0.01876831	
1737110813659	-0.016860962	
1737110813660	-0.008468628	
1737110813661	-0.010604858	
1737110813662	-0.017700195	
1737110813663	-0.009307861	
1737110813664	-5.340576E-4	
1737110813665	0.005645752	
1737110813666	0.014038086	
1737110813667	0.007858276	
1737110813668	0.007247925	
1737110813669	0.009384155	
1737110813670	0.0025939941	
1737110813671	5.340576E-4	
1737110813672	0.0019073486	
1737110813673	0.004348755	
1737110813674	0.0050354004	
1737110813675	0.005493164	
1737110813676	0.005569458	
1737110813677	0.008621216	
1737110813678	0.007095337	
1737110813679	0.0022125244	
1737110813680	-0.0048828125	
1737110813681	-0.00541687	
1737110813682	0.008621216	
1737110813683	0.009002686	
1737110813684	0.009155273	
1737110813685	0.004425049	
1737110813686	-0.00793457	
1737110813687	-0.007858276	
1737110813688	0.0051116943	
1737110813689	0.045776367	
1737110813690	0.045394897	
1737110813691	0.010223389	
1737110813692	-0.014038086	
1737110813693	-0.083236694	
1737110813694	-0.11703491	
1737110813695	-0.04219055	
1737110813696	0.009689331	
1737110813697	0.0011444092	
1737110813698	0.02609253	
1737110813699	0.05630493	
1737110813700	0.021362305	
1737110813701	-0.037765503	
1737110813702	-0.06996155	
1737110813703	-0.021209717	
1737110813704	0.045013428	
1737110813705	0.042495728	
1737110813706	0.09895325	
1737110813707	0.13771057	
1737110813708	0.08872986	
1737110813709	0.044555664	
1737110813710	-0.09613037	
1737110813711	-0.1928711	
1737110813712	-0.15037537	
1737110813713	-0.1461029	
1737110813714	-0.087890625	
1737110813715	0.02746582	
1737110813716	0.067596436	
1737110813717	0.07484436	
1737110813718	0.07537842	
1737110813719	0.07347107	
1737110813720	0.06752014	
1737110813721	0.05607605	
1737110813722	0.042800903	
1737110813723	0.026245117	
1737110813724	0.018692017	
1737110813725	0.010299683	
1737110813726	0.0024414062	
1737110813727	0.005493164	
1737110813728	-0.0037384033	
1737110813729	-0.016403198	
1737110813730	-0.022277832	
1737110813731	-0.027542114	
1737110813732	-0.019302368	
1737110813733	-0.022201538	
1737110813734	-0.025482178	
1737110813735	-0.02357483	
1737110813736	-0.03036499	
1737110813737	-0.02456665	
1737110813738	-0.019302368	
1737110813739	-0.02243042	
1737110813740	-0.02243042	
1737110813741	-0.018310547	
1737110813742	-0.007247925	
1737110813743	-0.004119873	
1737110813744	-0.0035095215	
1737110813745	1.5258789E-4	
1737110813746	7.6293945E-4	
1737110813747	0.011138916	
1737110813748	0.01625061	
1737110813749	0.0059509277	
1737110813750	0.009536743	
1737110813751	0.0118255615	
1737110813752	7.6293945E-4	
1737110813753	0.00869751	
1737110813754	0.013961792	
1737110813755	0.004043579	
1737110813756	9.918213E-4	
1737110813757	-0.0045776367	
1737110813758	-0.0015258789	
1737110813759	0.022125244	
1737110813760	0.04371643	
1737110813761	0.064468384	
1737110813762	0.078048706	
1737110813763	0.084991455	
1737110813764	0.0592041	
1737110813765	-0.01411438	
1737110813766	-0.09613037	
1737110813767	-0.19363403	
1737110813768	-0.20851135	
1737110813769	-0.07392883	
1737110813770	0.035476685	
1737110813771	0.025558472	
1737110813772	0.019760132	
1737110813773	0.042419434	
1737110813774	0.018692017	
1737110813775	-0.022201538	
1737110813776	0.022125244	
1737110813777	0.11444092	
1737110813778	0.068740845	
1737110813779	-0.013504028	
1737110813780	-0.027160645	
1737110813781	-0.014801025	
1737110813782	0.034179688	
1737110813783	0.032577515	
1737110813784	0.02067566	
1737110813785	0.027313232	
1737110813786	0.010070801	
1737110813787	0.016708374	
1737110813788	-0.0020599365	
1737110813789	-0.015563965	
1737110813790	-0.013122559	
1737110813791	-0.020980835	
1737110813792	-0.011978149	
1737110813793	-0.018463135	
1737110813794	-0.024032593	
1737110813795	-0.018997192	
1737110813796	-0.021438599	
1737110813797	-0.017318726	
1737110813798	-0.008544922	
1737110813799	-0.007171631	
1737110813800	-0.0074005127	
1737110813801	-0.00541687	
1737110813802	-0.008087158	
1737110813803	-0.01159668	
1737110813804	-0.00869751	
1737110813805	-0.004272461	
1737110813806	0.010604858	
1737110813807	0.022964478	
1737110813808	0.00831604	
1737110813809	-0.0010681152	
1737110813810	4.5776367E-4	
1737110813811	0.0	
1737110813812	0.0029754639	
1737110813813	-0.001373291	
1737110813814	-0.007247925	
1737110813815	-0.007019043	
1737110813816	0.011672974	
1737110813817	0.030517578	
1737110813818	0.016708374	
1737110813819	0.0032806396	
1737110813820	0.0015258789	
1737110813821	-0.012130737	
1737110813822	-0.015182495	
1737110813823	-5.340576E-4	
1737110813824	0.0022125244	
1737110813825	-3.0517578E-4	
1737110813826	0.002746582	
1737110813827	0.012359619	
1737110813828	0.015640259	
1737110813829	0.0075531006	
1737110813830	0.005493164	
1737110813831	-0.0012207031	
1737110813832	-0.0032043457	
1737110813833	-2.2888184E-4	
1737110813834	-0.003967285	
1737110813835	0.0036621094	
1737110813836	0.004196167	
1737110813837	-0.009155273	
1737110813838	-0.012512207	
1737110813839	-0.011978149	
1737110813840	-0.010070801	
1737110813841	-4.5776367E-4	
1737110813842	5.340576E-4	
1737110813843	-0.015716553	
1737110813844	-0.019760132	
1737110813845	-0.0035858154	
1737110813846	0.009384155	
1737110813847	0.031280518	
1737110813848	0.028152466	
1737110813849	-0.005569458	
1737110813850	-0.0036621094	
1737110813851	0.0075531006	
1737110813852	-0.0034332275	
1737110813853	-0.0059509277	
1737110813854	-0.006942749	
1737110813855	-0.006866455	
1737110813856	-0.0046539307	
1737110813857	-0.0063323975	
1737110813858	-0.0025939941	
1737110813859	-0.0022888184	
1737110813860	-0.0033569336	
1737110813861	2.2888184E-4	
1737110813862	0.0016021729	
1737110813863	0.0032806396	
1737110813864	0.0038909912	
1737110813865	4.5776367E-4	
1737110813866	3.0517578E-4	
1737110813867	5.340576E-4	
1737110813868	0.0031280518	
1737110813869	0.008239746	
1737110813870	0.011444092	
1737110813871	0.004348755	
1737110813872	-0.008087158	
1737110813873	-0.007095337	
1737110813874	0.004272461	
1737110813875	0.02319336	
1737110813876	0.06271362	
1737110813877	0.10253906	
1737110813878	0.075683594	
1737110813879	-0.011749268	
1737110813880	-0.0819397	
1737110813881	-0.11116028	
1737110813882	-0.08308411	
1737110813883	-0.027694702	
1737110813884	0.005264282	
1737110813885	-0.018692017	
1737110813886	-0.052719116	
1737110813887	-0.03036499	
1737110813888	-0.041275024	
1737110813889	-0.09185791	
1737110813890	-0.1348877	
1737110813891	-0.18196106	
1737110813892	-0.114746094	
1737110813893	0.064468384	
1737110813894	0.14839172	
1737110813895	0.17028809	
1737110813896	0.20584106	
1737110813897	0.1927185	
1737110813898	0.17028809	
1737110813899	0.123291016	
1737110813900	0.06645203	
1737110813901	0.031585693	
1737110813902	-0.0029754639	
1737110813903	-0.010070801	
1737110813904	-0.02166748	
1737110813905	-0.03768921	
1737110813906	-0.039215088	
1737110813907	-0.049819946	
1737110813908	-0.051651	
1737110813909	-0.05607605	
1737110813910	-0.06034851	
1737110813911	-0.052871704	
1737110813912	-0.048828125	
1737110813913	-0.046539307	
1737110813914	-0.047531128	
1737110813915	-0.039520264	
1737110813916	-0.032577515	
1737110813917	-0.030212402	
1737110813918	-0.018920898	
1737110813919	-0.018081665	
1737110813920	-0.014801025	
1737110813921	-0.0051879883	
1737110813922	-0.0032806396	
1737110813923	0.009231567	
1737110813924	0.013504028	
1737110813925	0.011672974	
1737110813926	0.019226074	
1737110813927	0.020599365	
1737110813928	0.025482178	
1737110813929	0.021438599	
1737110813930	0.014724731	
1737110813931	0.020217896	
1737110813932	0.020217896	
1737110813933	0.022964478	
1737110813934	0.026473999	
1737110813935	0.01663208	
1737110813936	0.012207031	
1737110813937	0.011367798	
1737110813938	0.004196167	
1737110813939	0.006713867	
1737110813940	0.010070801	
1737110813941	0.0060272217	
1737110813942	-7.6293945E-4	
1737110813943	-0.002822876	
1737110813944	5.340576E-4	
1737110813945	-0.004272461	
1737110813946	-0.012359619	
1737110813947	-0.013885498	
1737110813948	-0.011138916	
1737110813949	-0.009841919	
1737110813950	-0.009155273	
1737110813951	-0.0074005127	
1737110813952	-0.0030517578	
1737110813953	-0.0032806396	
1737110813954	-0.002746582	
1737110813955	0.0010681152	
1737110813956	-0.001373291	
1737110813957	-0.0011444092	
1737110813958	-0.0021362305	
1737110813959	-0.0036621094	
1737110813960	-0.004043579	
1737110813961	-0.002822876	
1737110813962	-0.0022888184	
1737110813963	-0.010757446	
1737110813964	-0.007019043	
1737110813965	9.918213E-4	
1737110813966	-4.5776367E-4	
1737110813967	0.0019836426	
1737110813968	0.00793457	
1737110813969	0.008392334	
1737110813970	-3.0517578E-4	
1737110813971	-0.0061035156	
1737110813972	3.8146973E-4	
1737110813973	0.0063323975	
1737110813974	0.0035095215	
1737110813975	0.007247925	
1737110813976	0.00869751	
1737110813977	-4.5776367E-4	
1737110813978	-0.0025939941	
1737110813979	0.0021362305	
1737110813980	0.0	
1737110813981	-0.004196167	
1737110813982	-0.002822876	
1737110813983	-0.0012969971	
1737110813984	-0.0015258789	
1737110813985	-0.0032043457	
1737110813986	3.0517578E-4	
1737110813987	0.0035858154	
1737110813988	9.1552734E-4	
1737110813989	-7.6293945E-4	
1737110813990	7.6293945E-5	
1737110813991	0.0025939941	
1737110813992	0.0025939941	
1737110813993	-0.0031280518	
1737110813994	-0.001449585	
1737110813995	0.0060272217	
1737110813996	0.0024414062	
1737110813997	-0.0090789795	
1737110813998	-0.014801025	
1737110813999	-0.007247925	
1737110814000	0.001373291	
1737110814001	-0.0022125244	
1737110814002	0.010299683	
1737110814003	0.05218506	
1737110814004	0.08796692	
1737110814005	0.10429382	
1737110814006	0.12756348	
1737110814007	0.112838745	
1737110814008	0.042037964	
1737110814009	0.011138916	
1737110814010	-0.08834839	
1737110814011	-0.2694702	
1737110814012	-0.3314209	
1737110814013	-0.36888123	
1737110814014	-0.35186768	
1737110814015	-0.1927948	
1737110814016	-0.02998352	
1737110814017	0.08956909	
1737110814018	0.11329651	
1737110814019	0.17417908	
1737110814020	0.28373718	
1737110814021	0.2344513	
1737110814022	0.1902771	
1737110814023	0.19416809	
1737110814024	0.14686584	
1737110814025	0.11856079	
1737110814026	0.09124756	
1737110814027	0.05760193	
1737110814028	0.024719238	
1737110814029	0.0031280518	
1737110814030	-0.013122559	
1737110814031	-0.038604736	
1737110814032	-0.048828125	
1737110814033	-0.056228638	
1737110814034	-0.06637573	
1737110814035	-0.07209778	
1737110814036	-0.07949829	
1737110814037	-0.078430176	
1737110814038	-0.07720947	
1737110814039	-0.07385254	
1737110814040	-0.066604614	
1737110814041	-0.062179565	
1737110814042	-0.048675537	
1737110814043	-0.039215088	
1737110814044	-0.034942627	
1737110814045	-0.027694702	
1737110814046	-0.019073486	
1737110814047	-0.010986328	
1737110814048	7.6293945E-5	
1737110814049	0.013122559	
1737110814050	0.015106201	
1737110814051	0.015640259	
1737110814052	0.019454956	
1737110814053	0.019760132	
1737110814054	0.027694702	
1737110814055	0.034713745	
1737110814056	0.029907227	
1737110814057	0.028762817	
1737110814058	0.03189087	
1737110814059	0.027160645	
1737110814060	0.023651123	
1737110814061	0.027008057	
1737110814062	0.023345947	
1737110814063	0.010375977	
1737110814064	0.010299683	
1737110814065	0.0118255615	
1737110814066	0.0051879883	
1737110814067	0.006713867	
1737110814068	3.8146973E-4	
1737110814069	-0.0021362305	
1737110814070	7.6293945E-5	
1737110814071	-0.00579834	
1737110814072	-0.005569458	
1737110814073	-0.008392334	
1737110814074	-0.013961792	
1737110814075	-0.011749268	
1737110814076	-0.00579834	
1737110814077	-0.0045776367	
1737110814078	-0.008010864	
1737110814079	-0.009841919	
1737110814080	-0.006866455	
1737110814081	-0.004425049	
1737110814082	-0.007171631	
1737110814083	-0.013504028	
1737110814084	-0.010147095	
1737110814085	-0.004348755	
1737110814086	0.0018310547	
1737110814087	0.0037384033	
1737110814088	-0.0047302246	
1737110814089	-0.0066375732	
1737110814090	-7.6293945E-5	
1737110814091	0.0015258789	
1737110814092	0.0045776367	
1737110814093	0.012741089	
1737110814094	0.015640259	
1737110814095	0.004348755	
1737110814096	-0.0035095215	
1737110814097	0.0010681152	
1737110814098	-0.009841919	
1737110814099	-0.02281189	
1737110814100	-0.00869751	
1737110814101	0.02204895	
1737110814102	0.008773804	
1737110814103	-0.02609253	
1737110814104	-0.008392334	
1737110814105	0.0051879883	
1737110814106	0.050430298	
1737110814107	0.14785767	
1737110814108	0.14533997	
1737110814109	0.03616333	
1737110814110	-0.0818634	
1737110814111	-0.1613617	
1737110814112	-0.1915741	
1737110814113	-0.18119812	
1737110814114	-0.11199951	
1737110814115	-0.00831604	
1737110814116	0.053863525	
1737110814117	0.062561035	
1737110814118	0.069503784	
1737110814119	0.06828308	
1737110814120	0.05531311	
1737110814121	0.055618286	
1737110814122	0.048599243	
1737110814123	0.03616333	
1737110814124	0.027999878	
1737110814125	0.018615723	
1737110814126	0.011062622	
1737110814127	0.009613037	
1737110814128	0.016708374	
1737110814129	0.035247803	
1737110814130	0.056610107	
1737110814131	0.07217407	
1737110814132	0.09567261	
1737110814133	0.07614136	
1737110814134	-0.048675537	
1737110814135	-0.1184845	
1737110814136	-0.12878418	
1737110814137	-0.2342987	
1737110814138	-0.1953888	
1737110814139	0.021896362	
1737110814140	0.005874634	
1737110814141	-0.16571045	
1737110814142	-0.1815033	
1737110814143	-0.097579956	
1737110814144	0.019836426	
1737110814145	0.11199951	
1737110814146	0.16288757	
1737110814147	0.20332336	
1737110814148	0.17944336	
1737110814149	0.047607422	
1737110814150	-0.09429932	
1737110814151	-0.108566284	
1737110814152	-0.03616333	
1737110814153	0.04333496	
1737110814154	0.08430481	
1737110814155	0.08430481	
1737110814156	0.08758545	
1737110814157	0.07286072	
1737110814158	0.059432983	
1737110814159	0.046920776	
1737110814160	0.030441284	
1737110814161	0.018081665	
1737110814162	-0.00541687	
1737110814163	-0.0132751465	
1737110814164	-0.022888184	
1737110814165	-0.037841797	
1737110814166	-0.042800903	
1737110814167	-0.04875183	
1737110814168	-0.048294067	
1737110814169	-0.04585266	
1737110814170	-0.043563843	
1737110814171	-0.042648315	
1737110814172	-0.036087036	
1737110814173	-0.037765503	
1737110814174	-0.034484863	
1737110814175	-0.027618408	
1737110814176	-0.030822754	
1737110814177	-0.01991272	
1737110814178	-0.0064849854	
1737110814179	-0.0011444092	
1737110814180	0.0050354004	
1737110814181	0.0065612793	
1737110814182	0.007247925	
1737110814183	0.0066375732	
1737110814184	0.0061798096	
1737110814185	0.017547607	
1737110814186	0.017471313	
1737110814187	0.012741089	
1737110814188	0.013885498	
1737110814189	0.010299683	
1737110814190	0.014190674	
1737110814191	0.020599365	
1737110814192	0.01991272	
1737110814193	0.022201538	
1737110814194	0.019607544	
1737110814195	0.008239746	
1737110814196	0.005569458	
1737110814197	0.01373291	
1737110814198	0.0119018555	
1737110814199	0.001449585	
1737110814200	0.0034332275	
1737110814201	0.0018310547	
1737110814202	-0.004043579	
1737110814203	3.8146973E-4	
1737110814204	-0.0062561035	
1737110814205	-0.0060272217	
1737110814206	-0.0059509277	
1737110814207	-0.013885498	
1737110814208	-0.0077056885	
1737110814209	-0.0064086914	
1737110814210	-0.008850098	
1737110814211	-0.0064849854	
1737110814212	0.0023651123	
1737110814213	0.0038909912	
1737110814214	-0.0049591064	
1737110814215	-0.0062561035	
1737110814216	-0.002746582	
1737110814217	-0.0030517578	
1737110814218	-0.0049591064	
1737110814219	0.0025939941	
1737110814220	0.005493164	
1737110814221	-0.006790161	
1737110814222	-0.012283325	
1737110814223	-0.008773804	
1737110814224	-0.0035095215	
1737110814225	0.0012969971	
1737110814226	-0.0020599365	
1737110814227	-0.0012207031	
1737110814228	0.0051879883	
1737110814229	0.0061798096	
1737110814230	0.009841919	
1737110814231	0.011138916	
1737110814232	0.005264282	
1737110814233	0.004196167	
1737110814234	0.005493164	
1737110814235	-0.0018310547	
1737110814236	-0.0048828125	
1737110814237	-0.0065612793	
1737110814238	-0.0037384033	
1737110814239	0.005264282	
1737110814240	0.0048828125	
1737110814241	6.866455E-4	
1737110814242	-0.0025939941	
1737110814243	-0.0029754639	
1737110814244	-0.0025939941	
1737110814245	-0.005340576	
1737110814246	-0.004501343	
1737110814247	-0.0030517578	
1737110814248	-0.0011444092	
1737110814249	0.0019836426	
1737110814250	0.005569458	
1737110814251	-0.001373291	
1737110814252	-0.0036621094	
1737110814253	0.0022888184	
1737110814254	-0.0011444092	
1737110814255	4.5776367E-4	
1737110814256	0.0038909912	
1737110814257	0.0015258789	
1737110814258	-0.0030517578	
1737110814259	-0.0023651123	
1737110814260	0.0012207031	
1737110814261	-0.0049591064	
1737110814262	-0.004272461	
1737110814263	-0.002670288	
1737110814264	-0.003967285	
1737110814265	0.005645752	
1737110814266	-0.0032043457	
1737110814267	-0.004272461	
1737110814268	0.0065612793	
1737110814269	0.0048828125	
1737110814270	0.008850098	
1737110814271	0.0132751465	
1737110814272	0.0015258789	
1737110814273	-0.0031280518	
1737110814274	-0.0034332275	
1737110814275	-0.011138916	
1737110814276	-6.866455E-4	
1737110814277	0.0064849854	
1737110814278	0.0047302246	
1737110814279	0.011138916	
1737110814280	0.0062561035	
1737110814281	-0.0025177002	
1737110814282	-0.010223389	
1737110814283	-0.008087158	
1737110814284	-0.0023651123	
1737110814285	-0.01159668	
1737110814286	-0.0061798096	
1737110814287	0.004196167	
1737110814288	-0.004348755	
1737110814289	-0.00579834	
1737110814290	-0.005340576	
1737110814291	-0.0060272217	
1737110814292	0.0061798096	
1737110814293	0.0119018555	
1737110814294	0.0035858154	
1737110814295	-0.002670288	
1737110814296	-5.340576E-4	
1737110814297	0.005493164	
1737110814298	0.0037384033	
1737110814299	-0.005569458	
1737110814300	-0.00869751	
1737110814301	0.0048065186	
1737110814302	0.005874634	
1737110814303	-0.0038146973	
1737110814304	0.0025939941	
1737110814305	-0.0010681152	
1737110814306	-0.0020599365	
1737110814307	-0.0012969971	
1737110814308	-0.0036621094	
1737110814309	6.1035156E-4	
1737110814310	0.005874634	
1737110814311	0.0076293945	
1737110814312	-0.0016021729	
1737110814313	-0.002746582	
1737110814314	0.0059509277	
1737110814315	0.0025177002	
1737110814316	0.0017547607	
1737110814317	7.6293945E-4	
1737110814318	-1.5258789E-4	
1737110814319	0.0034332275	
1737110814320	-0.0032043457	
1737110814321	-0.0073242188	
1737110814322	-0.0035095215	
1737110814323	-0.002746582	
1737110814324	-0.0030517578	
1737110814325	-0.0036621094	
1737110814326	-0.003967285	
1737110814327	-0.0019073486	
1737110814328	-0.0016021729	
1737110814329	-0.0018310547	
1737110814330	0.0025177002	
1737110814331	0.0016021729	
1737110814332	-5.340576E-4	
1737110814333	0.0016784668	
1737110814334	4.5776367E-4	
1737110814335	-0.0025939941	
1737110814336	8.392334E-4	
1737110814337	0.002746582	
1737110814338	-0.0025939941	
1737110814339	-0.001449585	
1737110814340	0.0074005127	
1737110814341	0.010604858	
1737110814342	0.0075531006	
1737110814343	0.0024414062	
1737110814344	-0.003967285	
1737110814345	-0.009155273	
1737110814346	-0.004425049	
1737110814347	-0.0016021729	
1737110814348	-0.0021362305	
1737110814349	0.0022888184	
1737110814350	0.0011444092	
1737110814351	0.0019836426	
1737110814352	0.0012207031	
1737110814353	-0.007095337	
1737110814354	-0.0063323975	
1737110814355	-0.0038146973	
1737110814356	-3.8146973E-4	
1737110814357	-0.004043579	
1737110814358	-0.0063323975	
1737110814359	3.0517578E-4	
1737110814360	0.0	
1737110814361	0.0049591064	
1737110814362	0.0063323975	
1737110814363	6.1035156E-4	
1737110814364	0.002670288	
1737110814365	9.918213E-4	
1737110814366	-0.0012207031	
1737110814367	-9.918213E-4	
1737110814368	0.0018310547	
1737110814369	0.0063323975	
1737110814370	0.0051116943	
1737110814371	0.0061798096	
1737110814372	0.0025177002	
1737110814373	-0.0016021729	
1737110814374	0.0012207031	
1737110814375	-0.008010864	
1737110814376	-0.006790161	
1737110814377	-0.004196167	
1737110814378	-0.013198853	
1737110814379	-0.0037384033	
1737110814380	0.01121521	
1737110814381	0.018615723	
1737110814382	0.011672974	
1737110814383	-0.00289917	
1737110814384	-0.0063323975	
1737110814385	-0.0046539307	
1737110814386	-0.0045776367	
1737110814387	-0.0062561035	
1737110814388	-0.0064849854	
1737110814389	-3.8146973E-4	
1737110814390	3.8146973E-4	
1737110814391	2.2888184E-4	
1737110814392	-0.0010681152	
1737110814393	-0.005722046	
1737110814394	-0.0022125244	
1737110814395	-6.866455E-4	
1737110814396	-0.0064849854	
1737110814397	-0.0064849854	
1737110814398	3.0517578E-4	
1737110814399	0.005722046	
1737110814400	0.004043579	
1737110814401	0.0021362305	
1737110814402	0.0037384033	
1737110814403	9.1552734E-4	
1737110814404	0.0025177002	
1737110814405	0.0015258789	
1737110814406	-0.0018310547	
1737110814407	2.2888184E-4	
1737110814408	0.0045776367	
1737110814409	0.005493164	
1737110814410	0.0012969971	
1737110814411	0.0	
1737110814412	0.00541687	
1737110814413	0.006942749	
1737110814414	-0.0022888184	
1737110814415	-0.0048828125	
1737110814416	0.0016021729	
1737110814417	-3.8146973E-4	
1737110814418	-0.0019836426	
1737110814419	-0.0038146973	
1737110814420	-0.00579834	
1737110814421	-0.001373291	
1737110814422	-0.0024414062	
1737110814423	-0.0074005127	
1737110814424	-0.003967285	
1737110814425	0.0033569336	
1737110814426	0.0016784668	
1737110814427	-6.866455E-4	
1737110814428	-0.001373291	
1737110814429	-0.002670288	
1737110814430	-5.340576E-4	
1737110814431	0.0021362305	
1737110814432	0.0025939941	
1737110814433	0.0045776367	
1737110814434	0.0035858154	
1737110814435	-7.6293945E-5	
1737110814436	-0.004119873	
1737110814437	9.1552734E-4	
1737110814438	0.005264282	
1737110814439	-0.0062561035	
1737110814440	-0.0048828125	
1737110814441	-9.1552734E-4	
1737110814442	-0.002822876	
1737110814443	-3.0517578E-4	
1737110814444	-0.012512207	
1737110814445	-0.0074005127	
1737110814446	0.005493164	
1737110814447	0.0063323975	
1737110814448	0.024719238	
1737110814449	0.016555786	
1737110814450	0.0038909912	
1737110814451	0.011672974	
1737110814452	-0.016174316	
1737110814453	-0.030136108	
1737110814454	-0.012207031	
1737110814455	0.0020599365	
1737110814456	0.006790161	
1737110814457	-0.00289917	
1737110814458	-0.0018310547	
1737110814459	0.0023651123	
1737110814460	7.6293945E-5	
1737110814461	9.1552734E-4	
1737110814462	-0.0016784668	
1737110814463	-0.0024414062	
1737110814464	-0.0037384033	
1737110814465	-0.0019836426	
1737110814466	0.009994507	
1737110814467	-6.1035156E-4	
1737110814468	-0.020446777	
1737110814469	0.007247925	
1737110814470	0.06416321	
1737110814471	0.10551453	
1737110814472	0.11413574	
1737110814473	0.056228638	
1737110814474	-0.041809082	
1737110814475	-0.1361084	
1737110814476	-0.20973206	
1737110814477	-0.17593384	
1737110814478	-0.07698059	
1737110814479	-0.01411438	
1737110814480	0.040283203	
1737110814481	0.065460205	
1737110814482	0.030212402	
1737110814483	0.004119873	
1737110814484	0.03440857	
1737110814485	0.057296753	
1737110814486	0.05569458	
1737110814487	0.049743652	
1737110814488	0.03982544	
1737110814489	0.034942627	
1737110814490	0.020828247	
1737110814491	0.012054443	
1737110814492	0.007247925	
1737110814493	0.0030517578	
1737110814494	0.005645752	
1737110814495	0.004119873	
1737110814496	-0.00289917	
1737110814497	-0.007247925	
1737110814498	-0.008163452	
1737110814499	-0.015640259	
1737110814500	-0.015182495	
1737110814501	-0.014877319	
1737110814502	-0.023345947	
1737110814503	-0.02128601	
1737110814504	-0.01373291	
1737110814505	-0.012893677	
1737110814506	-0.01411438	
1737110814507	-0.012512207	
1737110814508	-0.011291504	
1737110814509	-0.010910034	
1737110814510	-0.012435913	
1737110814511	-0.006790161	
1737110814512	7.6293945E-5	
1737110814513	-0.010375977	
1737110814514	6.866455E-4	
1737110814515	0.0118255615	
1737110814516	0.005874634	
1737110814517	0.002670288	
1737110814518	-5.340576E-4	
1737110814519	0.0035858154	
1737110814520	0.002670288	
1737110814521	0.0012207031	
1737110814522	0.0061035156	
1737110814523	0.0031280518	
1737110814524	-1.5258789E-4	
1737110814525	0.007019043	
1737110814526	0.005722046	
1737110814527	0.0045776367	
1737110814528	0.012359619	
1737110814529	0.008468628	
1737110814530	0.0033569336	
1737110814531	0.0061798096	
1737110814532	0.0061035156	
1737110814533	0.0063323975	
1737110814534	0.00541687	
1737110814535	0.001373291	
1737110814536	-0.0030517578	
1737110814537	4.5776367E-4	
1737110814538	-0.0029754639	
1737110814539	-0.002746582	
1737110814540	-2.2888184E-4	
1737110814541	-0.00541687	
1737110814542	7.6293945E-4	
1737110814543	-0.002822876	
1737110814544	-0.0038146973	
1737110814545	-0.002822876	
1737110814546	-0.0077056885	
1737110814547	-0.0048065186	
1737110814548	-0.0017547607	
1737110814549	-0.0032043457	
1737110814550	-0.0064086914	
1737110814551	-3.0517578E-4	
1737110814552	-9.1552734E-4	
1737110814553	-0.009231567	
1737110814554	-0.004119873	
1737110814555	1.5258789E-4	
1737110814556	-0.0021362305	
1737110814557	-6.866455E-4	
1737110814558	3.8146973E-4	
1737110814559	-0.002746582	
1737110814560	0.0062561035	
1737110814561	0.0076293945	
1737110814562	-0.0033569336	
1737110814563	-6.866455E-4	
1737110814564	8.392334E-4	
1737110814565	0.004272461	
1737110814566	0.0022125244	
1737110814567	-0.002746582	
1737110814568	0.004196167	
1737110814569	0.0061798096	
1737110814570	0.004119873	
1737110814571	-0.0012207031	
1737110814572	-0.0029754639	
1737110814573	0.0035095215	
1737110814574	0.0104522705	
1737110814575	7.6293945E-4	
1737110814576	-0.0048065186	
1737110814577	0.0020599365	
1737110814578	-9.918213E-4	
1737110814579	-0.001373291	
1737110814580	-0.0037384033	
1737110814581	-0.0045776367	
1737110814582	-0.0024414062	
1737110814583	0.0012207031	
1737110814584	0.0038146973	
1737110814585	-0.0019836426	
1737110814586	-0.0024414062	
1737110814587	0.004119873	
1737110814588	-6.1035156E-4	
1737110814589	-0.005722046	
1737110814590	-0.0073242188	
1737110814591	-0.009384155	
1737110814592	-0.007095337	
1737110814593	-0.0010681152	
1737110814594	2.2888184E-4	
1737110814595	-0.0047302246	
1737110814596	0.0019836426	
1737110814597	0.007019043	
1737110814598	0.008926392	
1737110814599	0.0077819824	
1737110814600	-0.001449585	
1737110814601	-4.5776367E-4	
1737110814602	-0.008239746	
1737110814603	-0.009384155	
1737110814604	-0.0020599365	
1737110814605	-0.008926392	
1737110814606	-0.004043579	
1737110814607	0.013809204	
1737110814608	0.012283325	
1737110814609	0.0075531006	
1737110814610	0.0031280518	
1737110814611	-0.0032043457	
1737110814612	0.0022888184	
1737110814613	-0.0035858154	
1737110814614	-0.0032043457	
1737110814615	0.0060272217	
1737110814616	0.0051116943	
1737110814617	0.009002686	
1737110814618	0.004501343	
1737110814619	-0.0030517578	
1737110814620	-0.0046539307	
1737110814621	-0.0023651123	
1737110814622	-0.003967285	
1737110814623	-0.012741089	
1737110814624	-0.008544922	
1737110814625	-0.0024414062	
1737110814626	-0.0011444092	
1737110814627	-6.1035156E-4	
1737110814628	-0.0025177002	
1737110814629	-0.0030517578	
1737110814630	-0.0019073486	
1737110814631	-0.0016784668	
1737110814632	0.003967285	
1737110814633	0.003967285	
1737110814634	0.0076293945	
1737110814635	-6.1035156E-4	
1737110814636	-0.0075531006	
1737110814637	-0.00289917	
1737110814638	-0.0016021729	
1737110814639	0.004043579	
1737110814640	0.0012969971	
1737110814641	-6.866455E-4	
1737110814642	-0.0019073486	
1737110814643	0.0037384033	
1737110814644	0.004272461	
1737110814645	-0.0016021729	
1737110814646	0.0030517578	
1737110814647	0.0024414062	
1737110814648	-9.1552734E-4	
1737110814649	-0.0010681152	
1737110814650	0.007858276	
1737110814651	0.004043579	
1737110814652	-0.0048065186	
1737110814653	-0.0012207031	
1737110814654	-0.0048828125	
1737110814655	-0.0051116943	
1737110814656	0.0030517578	
1737110814657	-0.0025939941	
1737110814658	-0.0016784668	
1737110814659	0.0047302246	
1737110814660	0.002670288	
1737110814661	0.005874634	
1737110814662	6.1035156E-4	
1737110814663	-0.0050354004	
1737110814664	-0.01083374	
1737110814665	-0.013504028	
1737110814666	-0.0010681152	
1737110814667	0.0012207031	
1737110814668	0.00579834	
1737110814669	0.0090789795	
1737110814670	-0.004501343	
1737110814671	-0.01838684	
1737110814672	-0.006790161	
1737110814673	9.1552734E-4	
1737110814674	0.001449585	
1737110814675	0.006713867	
1737110814676	0.0049591064	
1737110814677	0.0019073486	
1737110814678	0.0038909912	
1737110814679	0.006713867	
1737110814680	0.004425049	
1737110814681	-7.6293945E-5	
1737110814682	-0.0021362305	
1737110814683	-0.0038146973	
1737110814684	-0.003967285	
1737110814685	-0.0059509277	
1737110814686	0.0019836426	
1737110814687	0.012207031	
1737110814688	0.008544922	
1737110814689	0.0061798096	
1737110814690	0.001449585	
1737110814691	-0.0049591064	
1737110814692	-0.010070801	
1737110814693	-0.0019073486	
1737110814694	-0.0012207031	
1737110814695	-0.005264282	
1737110814696	-0.0022888184	
1737110814697	-0.0062561035	
1737110814698	-0.0016021729	
1737110814699	-0.0031280518	
1737110814700	-0.0037384033	
1737110814701	0.0061035156	
1737110814702	-0.008850098	
1737110814703	6.866455E-4	
1737110814704	0.0076293945	
1737110814705	-0.0020599365	
1737110814706	0.0064849854	
1737110814707	0.0011444092	
1737110814708	0.0012207031	
1737110814709	1.5258789E-4	
1737110814710	-0.009384155	
1737110814711	-0.004425049	
1737110814712	6.866455E-4	
1737110814713	-0.002822876	
1737110814714	-0.014190674	
1737110814715	-0.007247925	
1737110814716	0.0032806396	
1737110814717	0.0023651123	
1737110814718	0.00831604	
1737110814719	0.010986328	
1737110814720	0.005264282	
1737110814721	0.0011444092	
1737110814722	0.0030517578	
1737110814723	0.0019836426	
1737110814724	-0.0012969971	
1737110814725	-0.005722046	
1737110814726	-0.0050354004	
1737110814727	-0.00289917	
1737110814728	0.0031280518	
1737110814729	0.005722046	
1737110814730	0.006942749	
1737110814731	0.0064086914	
1737110814732	-0.0048065186	
1737110814733	0.0010681152	
1737110814734	0.008850098	
1737110814735	0.0032806396	
1737110814736	-0.0025939941	
1737110814737	-0.010528564	
1737110814738	-0.0073242188	
1737110814739	-0.004501343	
1737110814740	-0.008087158	
1737110814741	-0.004348755	
1737110814742	-0.0034332275	
1737110814743	-6.866455E-4	
1737110814744	0.0025939941	
1737110814745	-2.2888184E-4	
1737110814746	-0.0035858154	
1737110814747	-0.0046539307	
1737110814748	-0.004119873	
1737110814749	-0.005264282	
1737110814750	-0.004425049	
1737110814751	0.0034332275	
1737110814752	0.009384155	
1737110814753	0.007171631	
1737110814754	0.0011444092	
1737110814755	-0.0050354004	
1737110814756	-0.0022888184	
1737110814757	0.008621216	
1737110814758	6.1035156E-4	
1737110814759	-2.2888184E-4	
1737110814760	0.004272461	
1737110814761	0.002670288	
1737110814762	-0.007171631	
1737110814763	-0.0065612793	
1737110814764	-0.0010681152	
1737110814765	0.008621216	
1737110814766	0.015945435	
1737110814767	-0.0011444092	
1737110814768	-0.017623901	
1737110814769	-0.0025939941	
1737110814770	0.009002686	
1737110814771	0.012207031	
1737110814772	-0.004425049	
1737110814773	-0.01701355	
1737110814774	-0.0035858154	
1737110814775	0.0034332275	
1737110814776	0.010528564	
1737110814777	0.0063323975	
1737110814778	-0.0012969971	
1737110814779	0.0030517578	
1737110814780	-0.0011444092	
1737110814781	-0.010375977	
1737110814782	-0.0119018555	
1737110814783	-0.00289917	
1737110814784	0.004425049	
1737110814785	-0.0023651123	
1737110814786	-0.0019073486	
1737110814787	-0.001449585	
1737110814788	-0.005340576	
1737110814789	-2.2888184E-4	
1737110814790	0.007019043	
1737110814791	0.0062561035	
1737110814792	0.0016784668	
1737110814793	-0.0016021729	
1737110814794	-0.0032043457	
1737110814795	-0.005874634	
1737110814796	-0.008544922	
1737110814797	0.005340576	
1737110814798	0.005645752	
1737110814799	-0.004348755	
1737110814800	-0.0036621094	
1737110814801	-0.0064849854	
1737110814802	-0.01083374	
1737110814803	-0.0059509277	
1737110814804	-0.0034332275	
1737110814805	0.002746582	
1737110814806	0.0030517578	
1737110814807	0.0022125244	
1737110814808	0.0061035156	
1737110814809	0.004119873	
1737110814810	0.0035095215	
1737110814811	-0.0022888184	
1737110814812	3.8146973E-4	
1737110814813	0.009765625	
1737110814814	-1.5258789E-4	
1737110814815	-0.0061798096	
1737110814816	0.007171631	
1737110814817	0.0051879883	
1737110814818	0.0059509277	
1737110814819	0.01121521	
1737110814820	0.0076293945	
1737110814821	-0.0032806396	
1737110814822	-0.008544922	
1737110814823	-0.0060272217	
1737110814824	-6.1035156E-4	
1737110814825	-0.0064849854	
1737110814826	-0.00793457	
1737110814827	-0.0022125244	
1737110814828	3.8146973E-4	
1737110814829	-0.004272461	
1737110814830	-0.0020599365	
1737110814831	-0.002822876	
1737110814832	-0.008239746	
1737110814833	-0.0018310547	
1737110814834	0.0016021729	
1737110814835	-0.0030517578	
1737110814836	-0.0061035156	
1737110814837	0.0034332275	
1737110814838	0.012741089	
1737110814839	0.0012969971	
1737110814840	0.0019073486	
1737110814841	-0.0033569336	
1737110814842	-0.0048065186	
1737110814843	-0.0016784668	
1737110814844	-0.008468628	
1737110814845	0.006713867	
1737110814846	0.0012207031	
1737110814847	0.001449585	
1737110814848	0.006866455	
1737110814849	0.00869751	
1737110814850	0.014266968	
1737110814851	0.0021362305	
1737110814852	-0.008468628	
1737110814853	-0.0045776367	
1737110814854	-0.008544922	
1737110814855	-0.015487671	
1737110814856	-0.01663208	
1737110814857	-0.01335144	
1737110814858	0.005340576	
1737110814859	0.018844604	
1737110814860	0.012588501	
1737110814861	0.020751953	
1737110814862	0.03768921	
1737110814863	0.034332275	
1737110814864	0.02418518	
1737110814865	-0.0032043457	
1737110814866	-0.032730103	
1737110814867	-0.058517456	
1737110814868	-0.034942627	
1737110814869	0.0579834	
1737110814870	0.07400513	
1737110814871	0.018539429	
1737110814872	-0.016403198	
1737110814873	-0.09017944	
1737110814874	-0.15533447	
1737110814875	-0.16960144	
1737110814876	-0.10139465	
1737110814877	-0.0019073486	
1737110814878	-0.0012969971	
1737110814879	0.013122559	
1737110814880	0.08773804	
1737110814881	0.13305664	
1737110814882	0.12939453	
1737110814883	0.078430176	
1737110814884	0.026245117	
1737110814885	-0.048980713	
1737110814886	-0.04196167	
1737110814887	0.014953613	
1737110814888	0.023803711	
1737110814889	0.040893555	
1737110814890	0.036010742	
1737110814891	0.031967163	
1737110814892	0.032424927	
1737110814893	0.011749268	
1737110814894	0.0074005127	
1737110814895	0.00541687	
1737110814896	-0.01586914	
1737110814897	-0.029373169	
1737110814898	-0.010910034	
1737110814899	-0.009918213	
1737110814900	-0.016174316	
1737110814901	-0.014724731	
1737110814902	-0.02166748	
1737110814903	-0.02494812	
1737110814904	-0.030593872	
1737110814905	-0.034332275	
1737110814906	-0.02357483	
1737110814907	-0.0063323975	
1737110814908	-0.018692017	
1737110814909	-0.020599365	
1737110814910	-0.01739502	
1737110814911	-0.0016021729	
1737110814912	0.00289917	
1737110814913	-2.2888184E-4	
1737110814914	7.6293945E-5	
1737110814915	-0.020065308	
1737110814916	-0.006866455	
1737110814917	0.0059509277	
1737110814918	0.0018310547	
1737110814919	0.005874634	
1737110814920	0.015411377	
1737110814921	0.013809204	
1737110814922	0.012893677	
1737110814923	0.009002686	
1737110814924	0.009460449	
1737110814925	0.00793457	
1737110814926	0.002670288	
1737110814927	0.012588501	
1737110814928	0.010147095	
1737110814929	0.006866455	
1737110814930	0.00579834	
1737110814931	0.0029754639	
1737110814932	0.0020599365	
1737110814933	-6.866455E-4	
1737110814934	0.014190674	
1737110814935	0.007095337	
1737110814936	-0.016021729	
1737110814937	-0.0077056885	
1737110814938	0.004272461	
1737110814939	0.028533936	
1737110814940	0.08010864	
1737110814941	0.056610107	
1737110814942	-0.016098022	
1737110814943	-0.06439209	
1737110814944	-0.10978699	
1737110814945	-0.13191223	
1737110814946	-0.07644653	
1737110814947	9.918213E-4	
1737110814948	0.021514893	
1737110814949	0.034484863	
1737110814950	0.037765503	
1737110814951	0.020523071	
1737110814952	0.022583008	
1737110814953	0.017852783	
1737110814954	0.023727417	
1737110814955	0.023040771	
1737110814956	0.015487671	
1737110814957	0.032806396	
1737110814958	0.020599365	
1737110814959	-6.1035156E-4	
1737110814960	0.0011444092	
1737110814961	-0.0073242188	
1737110814962	0.0047302246	
1737110814963	-0.009155273	
1737110814964	-0.017852783	
1737110814965	-0.0036621094	
1737110814966	-0.016479492	
1737110814967	-0.0074005127	
1737110814968	-3.8146973E-4	
1737110814969	-0.0010681152	
1737110814970	-0.007019043	
1737110814971	-0.01838684	
1737110814972	-0.015640259	
1737110814973	-0.006713867	
1737110814974	8.392334E-4	
1737110814975	0.014877319	
1737110814976	0.009765625	
1737110814977	-0.009231567	
1737110814978	0.0035095215	
1737110814979	-2.2888184E-4	
1737110814980	4.5776367E-4	
1737110814981	-0.00289917	
1737110814982	-0.0132751465	
1737110814983	-0.01083374	
1737110814984	-0.005493164	
1737110814985	9.1552734E-4	
1737110814986	-1.5258789E-4	
1737110814987	-7.6293945E-5	
1737110814988	-0.008163452	
1737110814989	-0.0018310547	
1737110814990	0.01159668	
1737110814991	0.001449585	
1737110814992	0.00579834	
1737110814993	0.014419556	
1737110814994	0.047302246	
1737110814995	0.09414673	
1737110814996	0.09994507	
1737110814997	0.049591064	
1737110814998	-0.02571106	
1737110814999	-0.12260437	
1737110815000	-0.205307	
1737110815001	-0.19828796	
1737110815002	-0.10719299	
1737110815003	-0.01159668	
1737110815004	0.049972534	
1737110815005	0.07026672	
1737110815006	0.07019043	
1737110815007	0.06904602	
1737110815008	0.08453369	
1737110815009	0.14221191	
1737110815010	0.17295837	
1737110815011	0.121536255	
1737110815012	0.05050659	
1737110815013	-0.02029419	
1737110815014	-0.13946533	
1737110815015	-0.21522522	
1737110815016	-0.08735657	
1737110815017	0.078125	
1737110815018	0.07408142	
1737110815019	-0.0104522705	
1737110815020	-0.14015198	
1737110815021	-0.3566742	
1737110815022	-0.3932953	
1737110815023	-0.18585205	
1737110815024	-0.0077819824	
1737110815025	0.11741638	
1737110815026	0.20431519	
1737110815027	0.21255493	
1737110815028	0.2004242	
1737110815029	0.18066406	
1737110815030	0.16670227	
1737110815031	0.13648987	
1737110815032	0.09780884	
1737110815033	0.0769043	
1737110815034	0.044174194	
1737110815035	0.01739502	
1737110815036	-4.5776367E-4	
1737110815037	-0.027923584	
1737110815038	-0.036315918	
1737110815039	-0.03677368	
1737110815040	-0.047836304	
1737110815041	-0.027008057	
1737110815042	0.03982544	
1737110815043	0.06523132	
1737110815044	-0.012435913	
1737110815045	-0.12817383	
1737110815046	-0.21873474	
1737110815047	-0.29693604	
1737110815048	-0.23674011	
1737110815049	-0.08430481	
1737110815050	6.1035156E-4	
1737110815051	0.02998352	
1737110815052	0.02319336	
1737110815053	0.030288696	
1737110815054	0.063934326	
1737110815055	0.06736755	
1737110815056	0.05744934	
1737110815057	0.055618286	
1737110815058	0.05455017	
1737110815059	0.05897522	
1737110815060	0.05493164	
1737110815061	0.03692627	
1737110815062	0.020751953	
1737110815063	0.019226074	
1737110815064	0.018615723	
1737110815065	0.015945435	
1737110815066	0.017929077	
1737110815067	0.0066375732	
1737110815068	-0.0047302246	
1737110815069	-0.004272461	
1737110815070	-0.011672974	
1737110815071	-0.013885498	
1737110815072	0.00831604	
1737110815073	0.020980835	
1737110815074	0.0019073486	
1737110815075	-0.006713867	
1737110815076	0.03593445	
1737110815077	0.08003235	
1737110815078	0.05203247	
1737110815079	-0.0132751465	
1737110815080	-0.08911133	
1737110815081	-0.1763916	
1737110815082	-0.19844055	
1737110815083	-0.14282227	
1737110815084	-0.05088806	
1737110815085	0.0146484375	
1737110815086	0.032730103	
1737110815087	0.038223267	
1737110815088	0.039520264	
1737110815089	0.053710938	
1737110815090	0.06767273	
1737110815091	0.06820679	
1737110815092	0.061416626	
1737110815093	0.037841797	
1737110815094	0.00793457	
1737110815095	0.033187866	
1737110815096	0.05569458	
1737110815097	0.022125244	
1737110815098	0.0065612793	
1737110815099	0.0035858154	
1737110815100	-0.005264282	
1737110815101	-0.013046265	
1737110815102	-0.033950806	
1737110815103	-0.03074646	
1737110815104	-0.024032593	
1737110815105	-0.023269653	
1737110815106	-0.016784668	
1737110815107	-0.014877319	
1737110815108	-0.008010864	
1737110815109	0.001373291	
1737110815110	-0.009155273	
1737110815111	-0.009994507	
1737110815112	-0.00579834	
1737110815113	-0.009689331	
1737110815114	0.015258789	
1737110815115	0.071640015	
1737110815116	0.084991455	
1737110815117	0.06896973	
1737110815118	0.09048462	
1737110815119	0.034561157	
1737110815120	-0.09742737	
1737110815121	-0.08728027	
1737110815122	-0.027999878	
1737110815123	-0.07606506	
1737110815124	-0.16517639	
1737110815125	-0.23422241	
1737110815126	-0.12901306	
1737110815127	0.07873535	
1737110815128	0.12825012	
1737110815129	0.030517578	
1737110815130	-0.106277466	
1737110815131	-0.090789795	
1737110815132	6.1035156E-4	
1737110815133	0.067977905	
1737110815134	0.19493103	
1737110815135	0.23284912	
1737110815136	0.119628906	
1737110815137	-0.061645508	
1737110815138	-0.14129639	
1737110815139	-0.123062134	
1737110815140	-0.14633179	
1737110815141	-0.098724365	
1737110815142	0.06690979	
1737110815143	0.23780823	
1737110815144	0.28503418	
1737110815145	0.30067444	
1737110815146	0.31219482	
1737110815147	0.1878357	
1737110815148	0.029067993	
1737110815149	-0.19805908	
1737110815150	-0.32409668	
1737110815151	-0.31715393	
1737110815152	-0.47439575	
1737110815153	-0.33493042	
1737110815154	0.01625061	
1737110815155	0.028076172	
1737110815156	0.037460327	
1737110815157	0.10597229	
1737110815158	0.110321045	
1737110815159	0.13381958	
1737110815160	0.13633728	
1737110815161	0.12062073	
1737110815162	-0.010910034	
1737110815163	-0.086746216	
1737110815164	-0.015716553	
1737110815165	0.0118255615	
1737110815166	0.015258789	
1737110815167	0.045013428	
1737110815168	0.078125	
1737110815169	0.05706787	
1737110815170	0.017547607	
1737110815171	0.08857727	
1737110815172	0.20507812	
1737110815173	0.16815186	
1737110815174	0.026245117	
1737110815175	-0.090408325	
1737110815176	-0.22781372	
1737110815177	-0.37483215	
1737110815178	-0.34118652	
1737110815179	-0.17745972	
1737110815180	-0.10383606	
1737110815181	-0.04386902	
1737110815182	0.059280396	
1737110815183	0.090026855	
1737110815184	0.07972717	
1737110815185	0.09147644	
1737110815186	0.10192871	
1737110815187	0.11077881	
1737110815188	0.09628296	
1737110815189	0.102996826	
1737110815190	0.1184845	
1737110815191	0.08781433	
1737110815192	-0.006942749	
1737110815193	-0.07644653	
1737110815194	-0.04058838	
1737110815195	-0.08705139	
1737110815196	-0.05241394	
1737110815197	0.25993347	
1737110815198	0.46699524	
1737110815199	0.35095215	
1737110815200	-0.024490356	
1737110815201	-0.5131531	
1737110815202	-0.6916809	
1737110815203	-0.44082642	
1737110815204	-0.12527466	
1737110815205	0.078201294	
1737110815206	0.17829895	
1737110815207	0.2027893	
1737110815208	0.16212463	
1737110815209	-0.21873474	
1737110815210	-0.5672455	
1737110815211	-0.3793335	
1737110815212	-0.058746338	
1737110815213	0.23323059	
1737110815214	0.38253784	
1737110815215	0.27046204	
1737110815216	0.2518463	
1737110815217	0.22338867	
1737110815218	0.13015747	
1737110815219	0.16967773	
1737110815220	0.18692017	
1737110815221	0.12161255	
1737110815222	0.20996094	
1737110815223	0.3554535	
1737110815224	0.3100586	
1737110815225	0.25764465	
1737110815226	0.12031555	
1737110815227	-0.306015	
1737110815228	-0.7498932	
1737110815229	-0.8379364	
1737110815230	-0.64682007	
1737110815231	-0.43624878	
1737110815232	-0.2166748	
1737110815233	-0.06225586	
1737110815234	0.027542114	
1737110815235	0.10231018	
1737110815236	0.14411926	
1737110815237	0.21789551	
1737110815238	0.26565552	
1737110815239	0.23674011	
1737110815240	0.17913818	
1737110815241	0.14083862	
1737110815242	0.09925842	
1737110815243	0.033340454	
1737110815244	-0.03326416	
1737110815245	-0.044784546	
1737110815246	0.019989014	
1737110815247	0.09513855	
1737110815248	0.1361084	
1737110815249	0.10223389	
1737110815250	0.05836487	
1737110815251	0.009689331	
1737110815252	-0.011978149	
1737110815253	-0.0011444092	
1737110815254	-0.04020691	
1737110815255	-0.05317688	
1737110815256	-0.05256653	
1737110815257	-0.07858276	
1737110815258	-0.06378174	
1737110815259	-0.0554657	
1737110815260	-0.03715515	
1737110815261	0.038986206	
1737110815262	0.112838745	
1737110815263	0.12542725	
1737110815264	0.082092285	
1737110815265	0.077438354	
1737110815266	0.015563965	
1737110815267	-0.1273346	
1737110815268	-0.22918701	
1737110815269	-0.36094666	
1737110815270	-0.3741455	
1737110815271	-0.25169373	
1737110815272	-0.2218628	
1737110815273	-0.1977539	
1737110815274	-0.083999634	
1737110815275	0.09529114	
1737110815276	0.13519287	
1737110815277	-0.030136108	
1737110815278	-0.055236816	
1737110815279	0.028076172	
1737110815280	0.09536743	
1737110815281	0.3491974	
1737110815282	0.5604553	
1737110815283	0.45066833	
1737110815284	0.23475647	
1737110815285	0.14282227	
1737110815286	0.25138855	
1737110815287	0.4496765	
1737110815288	0.447464	
1737110815289	0.18730164	
1737110815290	-0.13519287	
1737110815291	-0.36827087	
1737110815292	-0.52505493	
1737110815293	-0.6499481	
1737110815294	-0.47454834	
1737110815295	-0.0881958	
1737110815296	-0.089035034	
1737110815297	-0.33714294	
1737110815298	-0.36323547	
1737110815299	-0.15426636	
1737110815300	0.108795166	
1737110815301	0.18211365	
1737110815302	0.17677307	
1737110815303	0.0907135	
1737110815304	-0.10017395	
1737110815305	0.0022125244	
1737110815306	0.115356445	
1737110815307	0.10673523	
1737110815308	0.22369385	
1737110815309	0.422287	
1737110815310	0.59410095	
1737110815311	0.533905	
1737110815312	0.3756714	
1737110815313	0.019302368	
1737110815314	-0.46432495	
1737110815315	-0.6667328	
1737110815316	-0.6751251	
1737110815317	-0.43273926	
1737110815318	-0.32943726	
1737110815319	-0.40489197	
1737110815320	-0.24360657	
1737110815321	-0.15205383	
1737110815322	0.047607422	
1737110815323	0.28137207	
1737110815324	0.35087585	
1737110815325	0.5181122	
1737110815326	0.48721313	
1737110815327	0.36117554	
1737110815328	0.27999878	
1737110815329	0.13771057	
1737110815330	0.028076172	
1737110815331	-0.06881714	
1737110815332	-0.070114136	
1737110815333	-0.022735596	
1737110815334	-0.029754639	
1737110815335	0.026016235	
1737110815336	0.069885254	
1737110815337	-0.020523071	
1737110815338	-0.19363403	
1737110815339	-0.15777588	
1737110815340	0.044403076	
1737110815341	0.004348755	
1737110815342	-0.19058228	
1737110815343	-0.3288269	
1737110815344	-0.29556274	
1737110815345	-0.09384155	
1737110815346	0.10467529	
1737110815347	0.30944824	
1737110815348	0.35888672	
1737110815349	0.13458252	
1737110815350	-0.103302	
1737110815351	-0.24513245	
1737110815352	-0.2141571	
1737110815353	0.10261536	
1737110815354	0.5532837	
1737110815355	0.5796051	
1737110815356	-0.10093689	
1737110815357	-0.93681335	
1737110815358	-1.3761902	
1737110815359	-1.0468292	
1737110815360	-0.4245758	
1737110815361	-0.22216797	
1737110815362	-0.11482239	
1737110815363	0.052719116	
1737110815364	0.3855896	
1737110815365	0.87623596	
1737110815366	0.9753418	
1737110815367	0.9200287	
1737110815368	0.83969116	
1737110815369	0.4727173	
1737110815370	0.17417908	
1737110815371	0.05340576	
1737110815372	-0.14656067	
1737110815373	-0.25680542	
1737110815374	-0.034866333	
1737110815375	0.22277832	
1737110815376	0.19218445	
1737110815377	-0.027923584	
1737110815378	-0.36125183	
1737110815379	-0.47103882	
1737110815380	-0.34072876	
1737110815381	-0.26237488	
1737110815382	-0.12870789	
1737110815383	-0.04096985	
1737110815384	-0.02746582	
1737110815385	-0.053710938	
1737110815386	-0.05378723	
1737110815387	0.0075531006	
1737110815388	-0.053329468	
1737110815389	-0.061645508	
1737110815390	-0.015182495	
1737110815391	-0.034713745	
1737110815392	0.020828247	
1737110815393	0.05203247	
1737110815394	0.044555664	
1737110815395	0.07751465	
1737110815396	0.16181946	
1737110815397	0.22888184	
1737110815398	0.17189026	
1737110815399	-0.056991577	
1737110815400	-0.39276123	
1737110815401	-0.4550171	
1737110815402	-0.16860962	
1737110815403	0.092315674	
1737110815404	0.10040283	
1737110815405	-0.0390625	
1737110815406	-0.09140015	
1737110815407	-0.057296753	
1737110815408	0.04623413	
1737110815409	0.13748169	
1737110815410	0.03479004	
1737110815411	0.020446777	
1737110815412	-0.017700195	
1737110815413	-0.18508911	
1737110815414	-0.109939575	
1737110815415	0.033798218	
1737110815416	0.22338867	
1737110815417	0.38223267	
1737110815418	0.29548645	
1737110815419	0.19920349	
1737110815420	0.07354736	
1737110815421	-0.08628845	
1737110815422	-0.04776001	
1737110815423	0.06111145	
1737110815424	-0.020217896	
1737110815425	-0.15075684	
1737110815426	-0.10169983	
1737110815427	-0.13404846	
1737110815428	-0.3401947	
1737110815429	-0.29380798	
1737110815430	-0.04966736	
1737110815431	0.049591064	
1737110815432	0.13679504	
1737110815433	0.21453857	
1737110815434	0.17318726	
1737110815435	0.11528015	
1737110815436	0.05706787	
1737110815437	0.056152344	
1737110815438	0.06881714	
1737110815439	0.094451904	
1737110815440	0.10223389	
1737110815441	0.063705444	
1737110815442	0.021362305	
1737110815443	-0.0051879883	
1737110815444	-0.010757446	
1737110815445	-0.034484863	
1737110815446	-0.051574707	
1737110815447	-0.14831543	
1737110815448	-0.24459839	
1737110815449	-0.1296997	
1737110815450	-0.026626587	
1737110815451	-0.054092407	
1737110815452	-0.08163452	
1737110815453	-0.07575989	
1737110815454	-0.033798218	
1737110815455	-0.0049591064	
1737110815456	0.018081665	
1737110815457	0.07949829	
1737110815458	0.06980896	
1737110815459	-0.0019073486	
1737110815460	-0.061035156	
1737110815461	-0.13038635	
1737110815462	-0.08628845	
1737110815463	0.014266968	
1737110815464	0.1121521	
1737110815465	0.1725769	
1737110815466	0.08705139	
1737110815467	0.045166016	
1737110815468	-0.0074005127	
1737110815469	-0.15792847	
1737110815470	-0.0920105	
1737110815471	0.072402954	
1737110815472	0.14198303	
1737110815473	0.16098022	
1737110815474	0.06454468	
1737110815475	-0.085372925	
1737110815476	-0.2117157	
1737110815477	-0.11947632	
1737110815478	0.036392212	
1737110815479	0.0132751465	
1737110815480	0.061416626	
1737110815481	0.0920105	
1737110815482	0.052337646	
1737110815483	0.07774353	
1737110815484	0.054016113	
1737110815485	0.05630493	
1737110815486	0.05256653	
1737110815487	0.022277832	
1737110815488	0.058135986	
1737110815489	0.0038909912	
1737110815490	-0.06416321	
1737110815491	-0.070877075	
1737110815492	-0.08308411	
1737110815493	-0.0440979	
1737110815494	0.0132751465	
1737110815495	-9.1552734E-4	
1737110815496	-0.08239746	
1737110815497	-0.11428833	
1737110815498	-0.049438477	
1737110815499	0.09338379	
1737110815500	0.31677246	
1737110815501	0.41427612	
1737110815502	0.20256042	
1737110815503	-0.15159607	
1737110815504	-0.4397583	
1737110815505	-0.5307007	
1737110815506	-0.19042969	
1737110815507	-0.004348755	
1737110815508	-0.35346985	
1737110815509	-0.496521	
1737110815510	-0.26397705	
1737110815511	0.039901733	
1737110815512	0.23605347	
1737110815513	0.3566742	
1737110815514	0.36079407	
1737110815515	0.2683258	
1737110815516	0.23132324	
1737110815517	0.18081665	
1737110815518	0.1437378	
1737110815519	0.1158905	
1737110815520	0.08010864	
1737110815521	0.08003235	
1737110815522	0.049362183	
1737110815523	0.011749268	
1737110815524	-0.007247925	
1737110815525	-0.032577515	
1737110815526	-0.034942627	
1737110815527	-0.050125122	
1737110815528	-0.05432129	
1737110815529	-0.06637573	
1737110815530	-0.087127686	
1737110815531	-0.091934204	
1737110815532	-0.09559631	
1737110815533	-0.083999634	
1737110815534	-0.06813049	
1737110815535	-0.052719116	
1737110815536	-0.051193237	
1737110815537	-0.05050659	
1737110815538	-0.03982544	
1737110815539	-0.04486084	
1737110815540	-0.023269653	
1737110815541	-0.005340576	
1737110815542	-0.009155273	
1737110815543	0.006942749	
1737110815544	0.015716553	
1737110815545	0.026397705	
1737110815546	0.021591187	
1737110815547	0.01159668	
1737110815548	0.0119018555	
1737110815549	0.010070801	
1737110815550	0.030059814	
1737110815551	0.04020691	
1737110815552	0.040664673	
1737110815553	0.036621094	
1737110815554	0.026855469	
1737110815555	0.028152466	
1737110815556	0.022201538	
1737110815557	0.0012207031	
1737110815558	-0.0132751465	
1737110815559	-0.005722046	
1737110815560	0.018463135	
1737110815561	0.010757446	
1737110815562	0.015563965	
1737110815563	0.009536743	
1737110815564	-0.0035858154	
1737110815565	-0.009536743	
1737110815566	-0.027389526	
1737110815567	-0.031204224	
1737110815568	-7.6293945E-4	
1737110815569	0.04219055	
1737110815570	0.042114258	
1737110815571	0.026321411	
1737110815572	0.012359619	
1737110815573	-0.024490356	
1737110815574	-0.03227234	
1737110815575	-0.026626587	
1737110815576	-0.02746582	
1737110815577	-0.018920898	
1737110815578	-0.02418518	
1737110815579	-0.010910034	
1737110815580	-0.018234253	
1737110815581	-0.025405884	
1737110815582	-0.01663208	
1737110815583	-0.026779175	
1737110815584	-0.020217896	
1737110815585	-9.918213E-4	
1737110815586	-0.005874634	
1737110815587	5.340576E-4	
1737110815588	0.01449585	
1737110815589	0.020446777	
1737110815590	0.038375854	
1737110815591	0.038146973	
1737110815592	0.025177002	
1737110815593	0.016937256	
1737110815594	-0.005569458	
1737110815595	-0.01083374	
1737110815596	-0.0045776367	
1737110815597	-0.00831604	
1737110815598	-0.0029754639	
1737110815599	-0.0077819824	
1737110815600	-0.0064086914	
1737110815601	-0.009155273	
1737110815602	-3.8146973E-4	
1737110815603	-0.0032806396	
1737110815604	-0.005569458	
1737110815605	0.0051116943	
1737110815606	0.0032806396	
1737110815607	0.007247925	
1737110815608	0.010147095	
1737110815609	0.0016784668	
1737110815610	5.340576E-4	
1737110815611	0.0032806396	
1737110815612	-0.0019073486	
1737110815613	-0.0019073486	
1737110815614	0.0019836426	
1737110815615	-0.005874634	
1737110815616	-0.0025939941	
1737110815617	-0.007247925	
1737110815618	0.008010864	
1737110815619	0.0024414062	
1737110815620	-0.00541687	
1737110815621	0.009307861	
1737110815622	-0.0037384033	
1737110815623	-4.5776367E-4	
1737110815624	-0.005493164	
1737110815625	-0.0075531006	
1737110815626	0.0035858154	
1737110815627	-0.010757446	
1737110815628	0.0032806396	
1737110815629	-0.0073242188	
1737110815630	-0.013122559	
1737110815631	-0.0019073486	
1737110815632	-0.0031280518	
1737110815633	0.0050354004	
1737110815634	-0.002746582	
1737110815635	-0.0047302246	
1737110815636	0.0063323975	
1737110815637	-0.0020599365	
1737110815638	0.0048065186	
1737110815639	-0.0051116943	
1737110815640	6.866455E-4	
1737110815641	-0.004272461	
1737110815642	-0.0025177002	
1737110815643	-6.1035156E-4	
1737110815644	0.0066375732	
1737110815645	0.0029754639	
1737110815646	-7.6293945E-4	
1737110815647	0.006866455	
1737110815648	0.0047302246	
1737110815649	0.0062561035	
1737110815650	0.005645752	
1737110815651	0.0032043457	
1737110815652	0.008926392	
1737110815653	0.010147095	
1737110815654	0.0049591064	
1737110815655	0.0024414062	
1737110815656	0.0037384033	
1737110815657	0.0035095215	
1737110815658	0.005264282	
1737110815659	-0.005645752	
1737110815660	-0.010528564	
1737110815661	-0.0046539307	
1737110815662	0.0011444092	
1737110815663	-8.392334E-4	
1737110815664	-0.0019073486	
1737110815665	-0.0050354004	
1737110815666	-0.005874634	
1737110815667	-0.013580322	
1737110815668	-0.0119018555	
1737110815669	-0.018234253	
1737110815670	-0.021820068	
1737110815671	-0.02067566	
1737110815672	-0.013580322	
1737110815673	-0.002746582	
1737110815674	-0.011672974	
1737110815675	-0.01411438	
1737110815676	-0.010299683	
1737110815677	-0.007858276	
1737110815678	-0.0011444092	
1737110815679	-2.2888184E-4	
1737110815680	0.0024414062	
1737110815681	0.0048065186	
1737110815682	0.0065612793	
1737110815683	0.0051116943	
1737110815684	0.004043579	
1737110815685	9.918213E-4	
1737110815686	-0.004348755	
1737110815687	6.1035156E-4	
1737110815688	0.0015258789	
1737110815689	0.0075531006	
1737110815690	0.00869751	
1737110815691	0.0010681152	
1737110815692	0.0033569336	
1737110815693	0.0019836426	
1737110815694	0.0022125244	
1737110815695	0.001449585	
1737110815696	0.0018310547	
1737110815697	-0.004348755	
1737110815698	-0.0035858154	
1737110815699	-0.0030517578	
1737110815700	-0.0025939941	
1737110815701	0.0059509277	
1737110815702	0.002670288	
1737110815703	0.007247925	
1737110815704	0.015182495	
1737110815705	0.0061035156	
1737110815706	-0.0019073486	
1737110815707	-0.0035095215	
1737110815708	0.0060272217	
1737110815709	0.0073242188	
1737110815710	0.010070801	
1737110815711	0.0050354004	
1737110815712	0.009155273	
1737110815713	0.010604858	
1737110815714	0.004425049	
1737110815715	0.0074005127	
1737110815716	0.012893677	
1737110815717	0.015258789	
1737110815718	0.010223389	
1737110815719	0.01663208	
1737110815720	0.0074768066	
1737110815721	0.007858276	
1737110815722	0.014038086	
1737110815723	0.0016784668	
1737110815724	-8.392334E-4	
1737110815725	0.002670288	
1737110815726	-0.010223389	
1737110815727	0.0016784668	
1737110815728	-0.008392334	
1737110815729	-0.016860962	
1737110815730	-0.021972656	
1737110815731	-0.03540039	
1737110815732	-0.041122437	
1737110815733	-0.024871826	
1737110815734	-0.023040771	
1737110815735	-0.019683838	
1737110815736	-0.012664795	
1737110815737	-0.027999878	
1737110815738	-0.015411377	
1737110815739	-0.009307861	
1737110815740	-0.005645752	
1737110815741	0.0017547607	
1737110815742	-0.011291504	
1737110815743	-0.0066375732	
1737110815744	-0.011520386	
1737110815745	-0.004425049	
1737110815746	0.0023651123	
1737110815747	6.866455E-4	
1737110815748	0.014724731	
1737110815749	0.015335083	
1737110815750	0.002822876	
1737110815751	0.002822876	
1737110815752	0.0031280518	
1737110815753	0.016708374	
1737110815754	0.027770996	
1737110815755	0.0076293945	
1737110815756	0.0038909912	
1737110815757	4.5776367E-4	
1737110815758	-0.005340576	
1737110815759	0.012512207	
1737110815760	5.340576E-4	
1737110815761	0.004425049	
1737110815762	-0.0060272217	
1737110815763	-0.009155273	
1737110815764	-0.0029754639	
1737110815765	0.0016784668	
1737110815766	0.004043579	
1737110815767	0.0017547607	
1737110815768	0.009384155	
1737110815769	-0.010147095	
1737110815770	-0.016708374	
1737110815771	-0.006866455	
1737110815772	0.008926392	
1737110815773	0.019989014	
1737110815774	0.01991272	
1737110815775	0.014801025	
1737110815776	0.01083374	
1737110815777	-0.0046539307	
1737110815778	-8.392334E-4	
1737110815779	-0.005874634	
1737110815780	-0.01953125	
1737110815781	-0.0047302246	
1737110815782	0.006790161	
1737110815783	0.021591187	
1737110815784	0.005722046	
1737110815785	-0.017242432	
1737110815786	-0.0050354004	
1737110815787	0.0022125244	
1737110815788	-0.001449585	
1737110815789	-0.009307861	
1737110815790	-0.0017547607	
1737110815791	-0.01777649	
1737110815792	-0.0029754639	
1737110815793	-0.0017547607	
1737110815794	-0.008621216	
1737110815795	0.0048828125	
1737110815796	-0.012207031	
1737110815797	-0.0051116943	
1737110815798	-0.0020599365	
1737110815799	0.0074005127	
1737110815800	0.01914978	
1737110815801	0.0038146973	
1737110815802	-0.0045776367	
1737110815803	0.0032043457	
1737110815804	-0.0045776367	
1737110815805	-0.015335083	
1737110815806	-0.0031280518	
1737110815807	0.009384155	
1737110815808	0.015563965	
1737110815809	0.015487671	
1737110815810	0.0012969971	
1737110815811	-9.918213E-4	
1737110815812	0.0061798096	
1737110815813	-0.0032806396	
1737110815814	-0.0032043457	
1737110815815	-0.009841919	
1737110815816	-0.014419556	
1737110815817	0.0015258789	
1737110815818	-0.007247925	
1737110815819	-0.019073486	
1737110815820	-0.0047302246	
1737110815821	0.033798218	
1737110815822	0.052490234	
1737110815823	0.013961792	
1737110815824	-0.054244995	
1737110815825	-0.122528076	
1737110815826	-0.09902954	
1737110815827	6.866455E-4	
1737110815828	0.0090789795	
1737110815829	0.0048828125	
1737110815830	0.027618408	
1737110815831	0.014572144	
1737110815832	0.038604736	
1737110815833	0.029373169	
1737110815834	0.03677368	
1737110815835	0.09063721	
1737110815836	0.08583069	
1737110815837	0.061035156	
1737110815838	0.054855347	
1737110815839	-0.00579834	
1737110815840	-0.083999634	
1737110815841	-0.108795166	
1737110815842	-0.14289856	
1737110815843	-0.14587402	
1737110815844	-0.08239746	
1737110815845	-0.0315094	
1737110815846	0.03715515	
1737110815847	0.09140015	
1737110815848	0.09788513	
1737110815849	0.020904541	
1737110815850	-0.047454834	
1737110815851	-0.04386902	
1737110815852	-0.008544922	
1737110815853	0.09109497	
1737110815854	0.15083313	
1737110815855	0.10673523	
1737110815856	0.09307861	
1737110815857	0.061187744	
1737110815858	-0.04562378	
1737110815859	-0.14259338	
1737110815860	-0.16990662	
1737110815861	-0.06843567	
1737110815862	0.014801025	
1737110815863	0.019683838	
1737110815864	0.035858154	
1737110815865	0.031967163	
1737110815866	0.03440857	
1737110815867	0.036468506	
1737110815868	0.016326904	
1737110815869	-0.0015258789	
1737110815870	-0.0045776367	
1737110815871	0.008926392	
1737110815872	0.0059509277	
1737110815873	-0.010070801	
1737110815874	-0.0024414062	
1737110815875	0.0051879883	
1737110815876	0.028381348	
1737110815877	0.032348633	
1737110815878	-0.009231567	
1737110815879	-0.0605011	
1737110815880	-0.10498047	
1737110815881	-0.06744385	
1737110815882	-0.020751953	
1737110815883	-0.03189087	
1737110815884	-0.019378662	
1737110815885	-0.014877319	
1737110815886	-0.01739502	
1737110815887	-0.009918213	
1737110815888	-0.012130737	
1737110815889	-0.0061035156	
1737110815890	-0.0024414062	
1737110815891	-0.0047302246	
1737110815892	-0.0018310547	
1737110815893	-0.004119873	
1737110815894	-0.0059509277	
1737110815895	0.004196167	
1737110815896	0.009841919	
1737110815897	0.015792847	
1737110815898	0.023345947	
1737110815899	0.030975342	
1737110815900	0.028152466	
1737110815901	0.029144287	
1737110815902	0.03501892	
1737110815903	0.031967163	
1737110815904	0.036849976	
1737110815905	0.032348633	
1737110815906	0.02746582	
1737110815907	0.030975342	
1737110815908	0.024795532	
1737110815909	0.026397705	
1737110815910	0.023422241	
1737110815911	0.007019043	
1737110815912	9.1552734E-4	
1737110815913	0.004501343	
1737110815914	0.0046539307	
1737110815915	-0.009460449	
1737110815916	-0.011749268	
1737110815917	-0.023880005	
1737110815918	-0.020523071	
1737110815919	-0.022583008	
1737110815920	-0.033416748	
1737110815921	-0.024719238	
1737110815922	-0.038528442	
1737110815923	-0.034713745	
1737110815924	-0.022964478	
1737110815925	-0.029754639	
1737110815926	-0.02960205	
1737110815927	-0.033340454	
1737110815928	-0.02319336	
1737110815929	-0.021820068	
1737110815930	-0.030441284	
1737110815931	-0.016403198	
1737110815932	-0.0035858154	
1737110815933	-0.005722046	
1737110815934	-7.6293945E-4	
1737110815935	-6.1035156E-4	
1737110815936	-0.0025939941	
1737110815937	0.007095337	
1737110815938	0.0146484375	
1737110815939	0.019607544	
1737110815940	0.027313232	
1737110815941	0.02822876	
1737110815942	0.028457642	
1737110815943	0.024337769	
1737110815944	0.019302368	
1737110815945	0.01876831	
1737110815946	0.021972656	
1737110815947	0.023880005	
1737110815948	0.019683838	
1737110815949	0.022659302	
1737110815950	0.013504028	
1737110815951	0.0011444092	
1737110815952	0.0019073486	
1737110815953	0.0010681152	
1737110815954	0.007858276	
1737110815955	0.010986328	
1737110815956	-0.0032043457	
1737110815957	-0.012588501	
1737110815958	-0.005493164	
1737110815959	-0.017547607	
1737110815960	-0.022659302	
1737110815961	-0.01121521	
1737110815962	-0.010986328	
1737110815963	-0.009155273	
1737110815964	-0.003967285	
1737110815965	-0.012359619	
1737110815966	-0.019073486	
1737110815967	-3.8146973E-4	
1737110815968	0.012741089	
1737110815969	0.005569458	
1737110815970	-0.0059509277	
1737110815971	-0.0025177002	
1737110815972	-0.0033569336	
1737110815973	-0.017929077	
1737110815974	-0.016555786	
1737110815975	-0.0065612793	
1737110815976	-0.009994507	
1737110815977	-0.014190674	
1737110815978	-3.0517578E-4	
1737110815979	0.046920776	
1737110815980	0.07888794	
1737110815981	0.050735474	
1737110815982	0.010910034	
1737110815983	-0.10147095	
1737110815984	-0.21499634	
1737110815985	-0.099868774	
1737110815986	0.049057007	
1737110815987	0.03463745	
1737110815988	0.04425049	
1737110815989	0.07598877	
1737110815990	0.11550903	
1737110815991	0.1296997	
1737110815992	0.04890442	
1737110815993	-0.077056885	
1737110815994	-0.24177551	
1737110815995	-0.2610016	
1737110815996	-0.0844574	
1737110815997	0.018920898	
1737110815998	0.07232666	
1737110815999	0.10040283	
1737110816000	0.07789612	
1737110816001	0.08026123	
1737110816002	0.06866455	
1737110816003	0.06744385	
1737110816004	0.06996155	
1737110816005	0.05256653	
1737110816006	0.04386902	
1737110816007	0.020065308	
1737110816008	0.0032806396	
1737110816009	-0.0047302246	
1737110816010	-0.011062622	
1737110816011	-0.0064849854	
1737110816012	-0.01449585	
1737110816013	-0.0132751465	
1737110816014	-0.012130737	
1737110816015	-0.023727417	
1737110816016	-0.028457642	
1737110816017	-0.023422241	
1737110816018	-0.019302368	
1737110816019	-0.026168823	
1737110816020	-0.021591187	
1737110816021	-0.019302368	
1737110816022	-0.017547607	
1737110816023	-0.014724731	
1737110816024	-0.020065308	
1737110816025	-0.009994507	
1737110816026	0.0017547607	
1737110816027	-6.1035156E-4	
1737110816028	-5.340576E-4	
1737110816029	-0.0046539307	
1737110816030	-0.0037384033	
1737110816031	0.0059509277	
1737110816032	0.012512207	
1737110816033	0.014801025	
1737110816034	0.008087158	
1737110816035	0.0074005127	
1737110816036	0.0065612793	
1737110816037	-6.866455E-4	
1737110816038	-0.00289917	
1737110816039	-0.0010681152	
1737110816040	-0.008163452	
1737110816041	-0.017852783	
1737110816042	-0.01373291	
1737110816043	-0.015563965	
1737110816044	-0.02128601	
1737110816045	-0.018463135	
1737110816046	-0.025787354	
1737110816047	-0.029525757	
1737110816048	-0.02746582	
1737110816049	-0.026397705	
1737110816050	-0.018005371	
1737110816051	-0.016098022	
1737110816052	-0.013122559	
1737110816053	-0.0015258789	
1737110816054	0.010299683	
1737110816055	0.02357483	
1737110816056	0.02960205	
1737110816057	0.036087036	
1737110816058	0.049972534	
1737110816059	0.061035156	
1737110816060	0.06317139	
1737110816061	0.056381226	
1737110816062	0.05432129	
1737110816063	0.052947998	
1737110816064	0.04547119	
1737110816065	0.036697388	
1737110816066	0.02166748	
1737110816067	0.0016021729	
1737110816068	-0.001449585	
1737110816069	-0.0016784668	
1737110816070	-0.014419556	
1737110816071	-0.015182495	
1737110816072	-0.024032593	
1737110816073	-0.037765503	
1737110816074	-0.04219055	
1737110816075	-0.05180359	
1737110816076	-0.05050659	
1737110816077	-0.04135132	
1737110816078	-0.035324097	
1737110816079	-0.036468506	
1737110816080	-0.0440979	
1737110816081	-0.04386902	
1737110816082	-0.03501892	
1737110816083	-0.023651123	
1737110816084	-0.011672974	
1737110816085	-0.001449585	
1737110816086	0.0034332275	
1737110816087	0.0049591064	
1737110816088	0.009613037	
1737110816089	0.013885498	
1737110816090	0.017471313	
1737110816091	0.02418518	
1737110816092	0.022735596	
1737110816093	0.024108887	
1737110816094	0.035247803	
1737110816095	0.037841797	
1737110816096	0.03944397	
1737110816097	0.046157837	
1737110816098	0.042495728	
1737110816099	0.021820068	
1737110816100	0.023880005	
1737110816101	0.051193237	
1737110816102	0.06881714	
1737110816103	0.03677368	
1737110816104	-0.12748718	
1737110816105	-0.21965027	
1737110816106	-0.089035034	
1737110816107	-0.045394897	
1737110816108	-0.0023651123	
1737110816109	0.15586853	
1737110816110	0.20011902	
1737110816111	0.1738739	
1737110816112	-0.0036621094	
1737110816113	-0.2381897	
1737110816114	-0.31272888	
1737110816115	-0.33233643	
1737110816116	-0.23330688	
1737110816117	-0.029754639	
1737110816118	0.084609985	
1737110816119	0.14152527	
1737110816120	0.19172668	
1737110816121	0.18569946	
1737110816122	0.15518188	
1737110816123	0.122680664	
1737110816124	0.079574585	
1737110816125	0.041275024	
1737110816126	0.05317688	
1737110816127	0.06263733	
1737110816128	0.018310547	
1737110816129	-0.017547607	
1737110816130	-0.053634644	
1737110816131	-0.06980896	
1737110816132	-0.03227234	
1737110816133	0.0023651123	
1737110816134	0.0340271	
1737110816135	0.08026123	
1737110816136	0.082092285	
1737110816137	0.038986206	
1737110816138	0.021362305	
1737110816139	-0.02166748	
1737110816140	-0.10696411	
1737110816141	-0.17852783	
1737110816142	-0.2597046	
1737110816143	-0.2987671	
1737110816144	-0.1687622	
1737110816145	0.004272461	
1737110816146	0.025177002	
1737110816147	0.036010742	
1737110816148	0.06996155	
1737110816149	0.05065918	
1737110816150	0.06378174	
1737110816151	0.06271362	
1737110816152	0.04928589	
1737110816153	0.050430298	
1737110816154	0.053863525	
1737110816155	0.06752014	
1737110816156	0.049819946	
1737110816157	0.045928955	
1737110816158	0.051116943	
1737110816159	0.03463745	
1737110816160	0.02357483	
1737110816161	0.020904541	
1737110816162	0.029449463	
1737110816163	0.015563965	
1737110816164	-0.0019836426	
1737110816165	-0.0047302246	
1737110816166	-0.010375977	
1737110816167	-0.010223389	
1737110816168	-0.012741089	
1737110816169	-0.010070801	
1737110816170	-0.0035858154	
1737110816171	-0.005569458	
1737110816172	-0.0031280518	
1737110816173	0.0030517578	
1737110816174	-0.013809204	
1737110816175	-0.017471313	
1737110816176	-6.1035156E-4	
1737110816177	0.0025939941	
1737110816178	0.0049591064	
1737110816179	0.0022888184	
1737110816180	-0.0032806396	
1737110816181	-0.012207031	
1737110816182	-0.013961792	
1737110816183	-0.0074005127	
1737110816184	-0.010223389	
1737110816185	-0.018844604	
1737110816186	-0.0289917	
1737110816187	-0.037002563	
1737110816188	-0.05027771	
1737110816189	-0.064697266	
1737110816190	-0.071258545	
1737110816191	-0.07537842	
1737110816192	-0.0680542	
1737110816193	-0.067214966	
1737110816194	-0.070877075	
1737110816195	-0.063705444	
1737110816196	-0.05470276	
1737110816197	-0.032348633	
1737110816198	-0.0062561035	
1737110816199	0.015792847	
1737110816200	0.022125244	
1737110816201	0.029830933	
1737110816202	0.048446655	
1737110816203	0.0630188	
1737110816204	0.08979797	
1737110816205	0.09613037	
1737110816206	0.08049011	
1737110816207	0.08377075	
1737110816208	0.09498596	
1737110816209	0.09269714	
1737110816210	0.08560181	
1737110816211	0.08407593	
1737110816212	0.08728027	
1737110816213	0.07621765	
1737110816214	0.051498413	
1737110816215	0.03807068	
1737110816216	0.027389526	
1737110816217	0.014419556	
1737110816218	-2.2888184E-4	
1737110816219	-0.022125244	
1737110816220	-0.03326416	
1737110816221	-0.037078857	
1737110816222	-0.036315918	
1737110816223	-0.03807068	
1737110816224	-0.042495728	
1737110816225	-0.04524231	
1737110816226	-0.053100586	
1737110816227	-0.060043335	
1737110816228	-0.056915283	
1737110816229	-0.047607422	
1737110816230	-0.032806396	
1737110816231	-0.03074646	
1737110816232	-0.055236816	
1737110816233	-0.06385803	
1737110816234	-0.05279541	
1737110816235	-0.044631958	
1737110816236	-0.033950806	
1737110816237	-0.027542114	
1737110816238	-0.026016235	
1737110816239	-0.019607544	
1737110816240	-0.011138916	
1737110816241	-0.009994507	
1737110816242	-0.00541687	
1737110816243	0.0061035156	
1737110816244	0.020599365	
1737110816245	0.01991272	
1737110816246	0.010528564	
1737110816247	0.01335144	
1737110816248	0.012054443	
1737110816249	0.009765625	
1737110816250	0.02243042	
1737110816251	0.02571106	
1737110816252	0.015335083	
1737110816253	0.021362305	
1737110816254	0.029144287	
1737110816255	0.036239624	
1737110816256	0.059432983	
1737110816257	0.05279541	
1737110816258	0.02029419	
1737110816259	0.03036499	
1737110816260	0.039749146	
1737110816261	0.012512207	
1737110816262	-0.005569458	
1737110816263	-0.0032043457	
1737110816264	0.009307861	
1737110816265	0.011672974	
1737110816266	0.0015258789	
1737110816267	0.0023651123	
1737110816268	0.00793457	
1737110816269	0.009841919	
1737110816270	0.008010864	
1737110816271	-0.009002686	
1737110816272	-0.030212402	
1737110816273	-0.033569336	
1737110816274	-0.010528564	
1737110816275	0.022354126	
1737110816276	0.03517151	
1737110816277	0.035476685	
1737110816278	0.01586914	
1737110816279	-0.06072998	
1737110816280	-0.13031006	
1737110816281	-0.15830994	
1737110816282	-0.16189575	
1737110816283	-0.097351074	
1737110816284	-0.009765625	
1737110816285	0.030136108	
1737110816286	0.039978027	
1737110816287	0.03211975	
1737110816288	0.016021729	
1737110816289	0.020523071	
1737110816290	0.0718689	
1737110816291	0.095214844	
1737110816292	0.07713318	
1737110816293	0.08834839	
1737110816294	0.022888184	
1737110816295	-0.0692749	
1737110816296	-0.043792725	
1737110816297	0.039596558	
1737110816298	0.10093689	
1737110816299	0.09605408	
1737110816300	0.100860596	
1737110816301	0.13717651	
1737110816302	0.02494812	
1737110816303	-0.2494812	
1737110816304	-0.39657593	
1737110816305	-0.29045105	
1737110816306	-0.14785767	
1737110816307	0.0390625	
1737110816308	0.18836975	
1737110816309	0.13160706	
1737110816310	0.101242065	
1737110816311	0.064315796	
1737110816312	0.03364563	
1737110816313	0.15815735	
1737110816314	0.12672424	
1737110816315	-0.036087036	
1737110816316	-0.04020691	
1737110816317	0.041275024	
1737110816318	0.03616333	
1737110816319	-0.013046265	
1737110816320	0.023727417	
1737110816321	0.04310608	
1737110816322	0.0036621094	
1737110816323	-0.0022888184	
1737110816324	-0.0046539307	
1737110816325	-0.006942749	
1737110816326	0.009536743	
1737110816327	-0.008621216	
1737110816328	-0.028152466	
1737110816329	0.018234253	
1737110816330	0.08468628	
1737110816331	0.022201538	
1737110816332	-0.23712158	
1737110816333	-0.3476715	
1737110816334	-0.23048401	
1737110816335	-0.22285461	
1737110816336	-0.120773315	
1737110816337	0.06599426	
1737110816338	0.11154175	
1737110816339	0.17204285	
1737110816340	0.17707825	
1737110816341	0.12870789	
1737110816342	0.076293945	
1737110816343	-0.03829956	
1737110816344	-0.11909485	
1737110816345	-0.07720947	
1737110816346	0.030136108	
1737110816347	0.09010315	
1737110816348	0.11917114	
1737110816349	0.11695862	
1737110816350	0.072250366	
1737110816351	0.030288696	
1737110816352	0.016860962	
1737110816353	0.03425598	
1737110816354	0.02067566	
1737110816355	0.017852783	
1737110816356	0.08979797	
1737110816357	0.099105835	
1737110816358	0.042495728	
1737110816359	0.03868103	
1737110816360	-0.030670166	
1737110816361	-0.10108948	
1737110816362	-0.06500244	
1737110816363	-0.108566284	
1737110816364	-0.18684387	
1737110816365	-0.27191162	
1737110816366	-0.3239441	
1737110816367	-0.14099121	
1737110816368	0.22842407	
1737110816369	0.39337158	
1737110816370	0.18981934	
1737110816371	-0.022659302	
1737110816372	-0.32806396	
1737110816373	-0.58280945	
1737110816374	-0.37017822	
1737110816375	-0.085754395	
1737110816376	0.06439209	
1737110816377	0.17715454	
1737110816378	0.17227173	
1737110816379	0.17753601	
1737110816380	0.28282166	
1737110816381	0.3302765	
1737110816382	0.3011322	
1737110816383	0.23971558	
1737110816384	0.1877594	
1737110816385	0.16273499	
1737110816386	0.0693512	
1737110816387	-0.017852783	
1737110816388	-0.013122559	
1737110816389	-0.029830933	
1737110816390	0.009536743	
1737110816391	0.12611389	
1737110816392	0.104522705	
1737110816393	-0.037002563	
1737110816394	-0.13633728	
1737110816395	-0.25489807	
1737110816396	-0.33210754	
1737110816397	-0.23216248	
1737110816398	-0.12802124	
1737110816399	-0.12886047	
1737110816400	-0.14976501	
1737110816401	-0.19294739	
1737110816402	-0.18341064	
1737110816403	0.041122437	
1737110816404	0.19416809	
1737110816405	0.14709473	
1737110816406	0.0769043	
1737110816407	-0.23841858	
1737110816408	-0.48690796	
1737110816409	-0.2874756	
1737110816410	-0.025253296	
1737110816411	0.14297485	
1737110816412	0.2509308	
1737110816413	0.307312	
1737110816414	0.34553528	
1737110816415	0.30059814	
1737110816416	0.27786255	
1737110816417	0.31295776	
1737110816418	0.2280426	
1737110816419	0.044555664	
1737110816420	-0.11161804	
1737110816421	-0.24879456	
1737110816422	-0.344162	
1737110816423	-0.2078247	
1737110816424	0.052871704	
1737110816425	0.053634644	
1737110816426	-0.10391235	
1737110816427	-0.11802673	
1737110816428	0.012893677	
1737110816429	0.05180359	
1737110816430	-0.03189087	
1737110816431	-0.06919861	
1737110816432	-0.14015198	
1737110816433	-0.09033203	
1737110816434	0.08987427	
1737110816435	0.1512146	
1737110816436	0.2532196	
1737110816437	0.30158997	
1737110816438	0.11734009	
1737110816439	-0.13938904	
1737110816440	-0.37452698	
1737110816441	-0.34965515	
1737110816442	-0.12062073	
1737110816443	-0.025405884	
1737110816444	0.043945312	
1737110816445	0.13694763	
1737110816446	0.13175964	
1737110816447	0.06706238	
1737110816448	0.0024414062	
1737110816449	0.00289917	
1737110816450	0.043563843	
1737110816451	0.07575989	
1737110816452	0.103759766	
1737110816453	0.070495605	
1737110816454	-0.0390625	
1737110816455	-0.072250366	
1737110816456	-0.011138916	
1737110816457	-0.0020599365	
1737110816458	-0.006790161	
1737110816459	-0.017852783	
1737110816460	-0.044784546	
1737110816461	-0.021057129	
1737110816462	-0.0075531006	
1737110816463	0.0029754639	
1737110816464	0.031204224	
1737110816465	-0.005340576	
1737110816466	-0.037994385	
1737110816467	-0.019760132	
1737110816468	-0.0074005127	
1737110816469	0.0038909912	
1737110816470	0.018692017	
1737110816471	0.034561157	
1737110816472	0.018157959	
1737110816473	-0.020370483	
1737110816474	-0.059814453	
1737110816475	-0.094833374	
1737110816476	-0.039749146	
1737110816477	0.06530762	
1737110816478	0.14137268	
1737110816479	0.15724182	
1737110816480	0.05973816	
1737110816481	-0.1108551	
1737110816482	-0.2381897	
1737110816483	-0.3025818	
1737110816484	-0.28381348	
1737110816485	-0.13252258	
1737110816486	0.021514893	
1737110816487	0.1360321	
1737110816488	0.28289795	
1737110816489	0.27450562	
1737110816490	0.13877869	
1737110816491	0.07911682	
1737110816492	0.016174316	
1737110816493	0.007019043	
1737110816494	0.05355835	
1737110816495	-3.8146973E-4	
1737110816496	-0.033340454	
1737110816497	0.030288696	
1737110816498	0.12626648	
1737110816499	0.1296997	
1737110816500	0.047225952	
1737110816501	-0.032730103	
1737110816502	-0.10368347	
1737110816503	-0.109939575	
1737110816504	-0.1058197	
1737110816505	-0.08972168	
1737110816506	-0.03501892	
1737110816507	-0.0046539307	
1737110816508	0.03753662	
1737110816509	0.06706238	
1737110816510	0.019836426	
1737110816511	-0.26893616	
1737110816512	-0.615921	
1737110816513	-0.39627075	
1737110816514	0.18478394	
1737110816515	0.4334259	
1737110816516	0.38589478	
1737110816517	0.15068054	
1737110816518	-0.07286072	
1737110816519	-0.11016846	
1737110816520	-0.15716553	
1737110816521	-0.08888245	
1737110816522	0.11894226	
1737110816523	0.21461487	
1737110816524	0.1285553	
1737110816525	-0.014724731	
1737110816526	-0.17181396	
1737110816527	-0.13442993	
1737110816528	0.10650635	
1737110816529	0.17982483	
1737110816530	0.20591736	
1737110816531	0.20202637	
1737110816532	0.13320923	
1737110816533	0.09681702	
1737110816534	-0.0051116943	
1737110816535	-0.09124756	
1737110816536	-0.11817932	
1737110816537	-0.1612091	
1737110816538	-0.21057129	
1737110816539	-0.19859314	
1737110816540	-0.13465881	
1737110816541	-0.062179565	
1737110816542	0.08407593	
1737110816543	0.18295288	
1737110816544	0.058517456	
1737110816545	-0.057907104	
1737110816546	-0.123062134	
1737110816547	-0.20141602	
1737110816548	-0.056991577	
1737110816549	0.15098572	
1737110816550	0.19866943	
1737110816551	0.17837524	
1737110816552	0.05531311	
1737110816553	-0.05355835	
1737110816554	-0.091781616	
1737110816555	-0.088272095	
1737110816556	-0.03944397	
1737110816557	-0.15510559	
1737110816558	-0.18188477	
1737110816559	0.1285553	
1737110816560	0.26916504	
1737110816561	0.2267456	
1737110816562	0.24368286	
1737110816563	-0.022659302	
1737110816564	-0.39360046	
1737110816565	-0.4171753	
1737110816566	-0.27313232	
1737110816567	-0.10154724	
1737110816568	0.09552002	
1737110816569	0.14663696	
1737110816570	0.12458801	
1737110816571	0.050354004	
1737110816572	-0.05897522	
1737110816573	-9.1552734E-4	
1737110816574	0.15571594	
1737110816575	0.19248962	
1737110816576	0.16319275	
1737110816577	0.17219543	
1737110816578	0.22354126	
1737110816579	0.28678894	
1737110816580	0.2645874	
1737110816581	0.15922546	
1737110816582	-0.006713867	
1737110816583	-0.20401001	
1737110816584	-0.3451538	
1737110816585	-0.306015	
1737110816586	-0.28938293	
1737110816587	-0.42518616	
1737110816588	-0.26679993	
1737110816589	-0.04447937	
1737110816590	-0.059661865	
1737110816591	-0.0060272217	
1737110816592	0.020904541	
1737110816593	0.08415222	
1737110816594	0.15396118	
1737110816595	0.07774353	
1737110816596	0.07003784	
1737110816597	0.09635925	
1737110816598	0.117492676	
1737110816599	0.111465454	
1737110816600	0.09246826	
1737110816601	0.19577026	
1737110816602	0.24810791	
1737110816603	0.181427	
1737110816604	0.08041382	
1737110816605	-0.2003479	
1737110816606	-0.37635803	
1737110816607	-0.3000641	
1737110816608	-0.2671051	
1737110816609	-0.16464233	
1737110816610	0.010604858	
1737110816611	0.08972168	
1737110816612	0.07896423	
1737110816613	0.012588501	
1737110816614	-0.027313232	
1737110816615	-0.08453369	
1737110816616	-0.0077056885	
1737110816617	0.17662048	
1737110816618	0.17814636	
1737110816619	0.12008667	
1737110816620	0.1651001	
1737110816621	0.16189575	
1737110816622	0.052261353	
1737110816623	0.005645752	
1737110816624	-0.018692017	
1737110816625	-0.12542725	
1737110816626	-0.11413574	
1737110816627	-0.04058838	
1737110816628	-0.0843811	
1737110816629	-0.06454468	
1737110816630	0.0045776367	
1737110816631	-0.13122559	
1737110816632	-0.21141052	
1737110816633	-0.11512756	
1737110816634	-0.06362915	
1737110816635	0.101623535	
1737110816636	0.25856018	
1737110816637	0.14274597	
1737110816638	0.029525757	
1737110816639	-0.06416321	
1737110816640	-0.18554688	
1737110816641	-0.093688965	
1737110816642	0.03730774	
1737110816643	0.04714966	
1737110816644	-0.0017547607	
1737110816645	-0.073394775	
1737110816646	0.008850098	
1737110816647	0.25131226	
1737110816648	0.49804688	
1737110816649	0.48835754	
1737110816650	0.25886536	
1737110816651	0.16487122	
1737110816652	-0.0025177002	
1737110816653	-0.46463013	
1737110816654	-0.8293152	
1737110816655	-0.77163696	
1737110816656	-0.43121338	
1737110816657	-0.20225525	
1737110816658	-0.18554688	
1737110816659	-0.068359375	
1737110816660	0.19340515	
1737110816661	0.3780365	
1737110816662	0.44128418	
1737110816663	0.39604187	
1737110816664	0.29304504	
1737110816665	0.16059875	
1737110816666	0.17539978	
1737110816667	0.24009705	
1737110816668	0.17555237	
1737110816669	0.027694702	
1737110816670	-0.23094177	
1737110816671	-0.36643982	
1737110816672	-0.15312195	
1737110816673	0.12695312	
1737110816674	0.1712799	
1737110816675	0.14328003	
1737110816676	0.055847168	
1737110816677	-0.1625061	
1737110816678	-0.4068756	
1737110816679	-0.5213165	
1737110816680	-0.29258728	
1737110816681	0.03112793	
1737110816682	0.13916016	
1737110816683	0.052337646	
1737110816684	-0.08621216	
1737110816685	-0.07095337	
1737110816686	0.06248474	
1737110816687	0.22132874	
1737110816688	0.30921936	
1737110816689	0.20812988	
1737110816690	0.07987976	
1737110816691	-0.0033569336	
1737110816692	-0.14228821	
1737110816693	-0.2003479	
1737110816694	-0.040740967	
1737110816695	0.038604736	
1737110816696	0.040893555	
1737110816697	0.13412476	
1737110816698	0.19897461	
1737110816699	0.30403137	
1737110816700	0.43754578	
1737110816701	0.51490784	
1737110816702	0.26298523	
1737110816703	-0.16174316	
1737110816704	-0.1851654	
1737110816705	-0.5063629	
1737110816706	-0.8477783	
1737110816707	-0.5471802	
1737110816708	-0.62324524	
1737110816709	-0.884552	
1737110816710	-0.69984436	
1737110816711	-0.36369324	
1737110816712	-0.044403076	
1737110816713	0.1927948	
1737110816714	0.47096252	
1737110816715	0.6140137	
1737110816716	0.58654785	
1737110816717	0.6158447	
1737110816718	0.585022	
1737110816719	0.5193329	
1737110816720	0.53009033	
1737110816721	0.29891968	
1737110816722	0.06591797	
1737110816723	0.04547119	
1737110816724	-0.039520264	
1737110816725	-0.10437012	
1737110816726	-0.07118225	
1737110816727	0.052490234	
1737110816728	0.09056091	
1737110816729	0.006790161	
1737110816730	-0.05508423	
1737110816731	-0.18745422	
1737110816732	-0.27236938	
1737110816733	-0.20980835	
1737110816734	-0.07904053	
1737110816735	-0.037384033	
1737110816736	-0.14778137	
1737110816737	-0.4560852	
1737110816738	-0.7057953	
1737110816739	-0.53749084	
1737110816740	-0.17463684	
1737110816741	0.014266968	
1737110816742	0.04196167	
1737110816743	0.16326904	
1737110816744	0.27626038	
1737110816745	0.29190063	
1737110816746	0.25161743	
1737110816747	0.09979248	
1737110816748	-0.01991272	
1737110816749	-0.24513245	
1737110816750	-0.2924347	
1737110816751	0.034713745	
1737110816752	0.12374878	
1737110816753	0.11627197	
1737110816754	0.19607544	
1737110816755	0.15892029	
1737110816756	0.1737976	
1737110816757	0.20317078	
1737110816758	0.14823914	
1737110816759	0.17745972	
1737110816760	0.23223877	
1737110816761	0.2267456	
1737110816762	0.16433716	
1737110816763	0.056610107	
1737110816764	-0.15419006	
1737110816765	-0.42099	
1737110816766	-0.42488098	
1737110816767	-0.16777039	
1737110816768	-0.09971619	
1737110816769	-0.10536194	
1737110816770	-0.03982544	
1737110816771	-0.058288574	
1737110816772	-0.018234253	
1737110816773	0.02067566	
1737110816774	-0.014572144	
1737110816775	-0.014724731	
1737110816776	0.0059509277	
1737110816777	0.049819946	
1737110816778	0.06309509	
1737110816779	0.04798889	
1737110816780	0.005264282	
1737110816781	-0.017929077	
1737110816782	0.015563965	
1737110816783	0.030593872	
1737110816784	-0.012283325	
1737110816785	-0.031204224	
1737110816786	-0.03616333	
1737110816787	0.002746582	
1737110816788	0.07400513	
1737110816789	0.08010864	
1737110816790	0.06072998	
1737110816791	0.10772705	
1737110816792	0.108184814	
1737110816793	-0.010757446	
1737110816794	-0.04486084	
1737110816795	-0.016021729	
1737110816796	-0.06362915	
1737110816797	-0.09552002	
1737110816798	-0.07972717	
1737110816799	-0.033950806	
1737110816800	-0.0045776367	
1737110816801	6.1035156E-4	
1737110816802	-0.009155273	
1737110816803	-0.04547119	
1737110816804	-0.023269653	
1737110816805	0.005874634	
1737110816806	0.01083374	
1737110816807	0.022125244	
1737110816808	0.010375977	
1737110816809	0.025024414	
1737110816810	0.048828125	
1737110816811	0.016174316	
1737110816812	-0.0038146973	
1737110816813	0.00793457	
1737110816814	-3.0517578E-4	
1737110816815	-0.009841919	
1737110816816	-0.0019073486	
1737110816817	0.01586914	
1737110816818	0.0060272217	
1737110816819	-0.02281189	
1737110816820	-0.018539429	
1737110816821	-0.027389526	
1737110816822	-0.026931763	
1737110816823	-0.0037384033	
1737110816824	0.040512085	
1737110816825	0.02067566	
1737110816826	-0.0015258789	
1737110816827	0.009384155	
1737110816828	-0.003967285	
1737110816829	0.049362183	
1737110816830	0.10658264	
1737110816831	0.05897522	
1737110816832	-0.039520264	
1737110816833	-0.12954712	
1737110816834	-0.16601562	
1737110816835	-0.0907135	
1737110816836	0.02532959	
1737110816837	0.046539307	
1737110816838	0.0146484375	
1737110816839	0.019073486	
1737110816840	0.011978149	
1737110816841	0.031585693	
1737110816842	0.018463135	
1737110816843	-0.012817383	
1737110816844	0.026779175	
1737110816845	0.023269653	
1737110816846	0.008926392	
1737110816847	-0.0065612793	
1737110816848	-0.0035095215	
1737110816849	0.023727417	
1737110816850	0.029296875	
1737110816851	0.047225952	
1737110816852	0.03135681	
1737110816853	0.0024414062	
1737110816854	-0.03540039	
1737110816855	-0.10765076	
1737110816856	-0.121154785	
1737110816857	-0.041503906	
1737110816858	0.0064086914	
1737110816859	-0.0060272217	
1737110816860	-0.011749268	
1737110816861	0.0048828125	
1737110816862	0.0415802	
1737110816863	0.047912598	
1737110816864	0.028839111	
1737110816865	0.019378662	
1737110816866	0.019683838	
1737110816867	0.025405884	
1737110816868	0.01159668	
1737110816869	-0.008087158	
1737110816870	-0.015792847	
1737110816871	-0.004501343	
1737110816872	0.005645752	
1737110816873	0.001449585	
1737110816874	7.6293945E-4	
1737110816875	0.0018310547	
1737110816876	-0.010299683	
1737110816877	-0.011672974	
1737110816878	-7.6293945E-4	
1737110816879	-0.0045776367	
1737110816880	-0.010681152	
1737110816881	-0.010070801	
1737110816882	5.340576E-4	
1737110816883	3.0517578E-4	
1737110816884	-0.002670288	
1737110816885	0.004425049	
1737110816886	0.009536743	
1737110816887	0.0077819824	
1737110816888	-0.0019836426	
1737110816889	-0.002746582	
1737110816890	0.0059509277	
1737110816891	-0.007019043	
1737110816892	-0.01953125	
1737110816893	-0.015792847	
1737110816894	-0.005493164	
1737110816895	0.0016784668	
1737110816896	0.0045776367	
1737110816897	0.014419556	
1737110816898	0.0032043457	
1737110816899	0.0132751465	
1737110816900	0.0146484375	
1737110816901	0.0012207031	
1737110816902	-7.6293945E-5	
1737110816903	-5.340576E-4	
1737110816904	0.0012207031	
1737110816905	-0.0022125244	
1737110816906	-0.004348755	
1737110816907	-0.0025939941	
1737110816908	-0.011520386	
1737110816909	-0.0025939941	
1737110816910	0.0022125244	
1737110816911	0.0012969971	
1737110816912	-0.0035858154	
1737110816913	0.0023651123	
1737110816914	0.009002686	
1737110816915	7.6293945E-4	
1737110816916	-0.0038909912	
1737110816917	0.004425049	
1737110816918	0.010223389	
1737110816919	0.0059509277	
1737110816920	0.008621216	
1737110816921	0.0045776367	
1737110816922	-0.0032043457	
1737110816923	-0.0010681152	
1737110816924	-0.009536743	
1737110816925	-0.011749268	
1737110816926	-0.005264282	
1737110816927	-0.007858276	
1737110816928	-0.010986328	
1737110816929	-0.01701355	
1737110816930	-0.016174316	
1737110816931	-0.012054443	
1737110816932	-0.014801025	
1737110816933	-0.009155273	
1737110816934	-0.0022125244	
1737110816935	0.0048065186	
1737110816936	0.0066375732	
1737110816937	-6.1035156E-4	
1737110816938	7.6293945E-4	
1737110816939	0.007171631	
1737110816940	0.010070801	
1737110816941	0.016860962	
1737110816942	0.014572144	
1737110816943	0.013198853	
1737110816944	0.00831604	
1737110816945	0.007858276	
1737110816946	3.0517578E-4	
1737110816947	-0.009536743	
1737110816948	-0.0073242188	
1737110816949	-0.0062561035	
1737110816950	-0.017166138	
1737110816951	-0.01953125	
1737110816952	-0.0146484375	
1737110816953	-0.015563965	
1737110816954	-0.007858276	
1737110816955	-0.0016784668	
1737110816956	-0.010299683	
1737110816957	-0.0066375732	
1737110816958	-0.010757446	
1737110816959	-0.0090789795	
1737110816960	-0.006790161	
1737110816961	-0.009384155	
1737110816962	-0.001373291	
1737110816963	-0.002670288	
1737110816964	-9.918213E-4	
1737110816965	0.0061035156	
1737110816966	9.1552734E-4	
1737110816967	0.0024414062	
1737110816968	-1.5258789E-4	
1737110816969	9.1552734E-4	
1737110816970	0.011062622	
1737110816971	0.020751953	
1737110816972	0.02357483	
1737110816973	0.012435913	
1737110816974	0.008850098	
1737110816975	0.010223389	
1737110816976	0.01159668	
1737110816977	0.020446777	
1737110816978	0.02281189	
1737110816979	0.008392334	
1737110816980	-0.0015258789	
1737110816981	-0.0061798096	
1737110816982	-0.008392334	
1737110816983	0.005874634	
1737110816984	0.021362305	
1737110816985	0.03501892	
1737110816986	0.042877197	
1737110816987	0.036849976	
1737110816988	0.026779175	
1737110816989	0.029449463	
1737110816990	0.03288269	
1737110816991	0.02319336	
1737110816992	0.0104522705	
1737110816993	0.0016784668	
1737110816994	0.0031280518	
1737110816995	0.0045776367	
1737110816996	0.0020599365	
1737110816997	-0.0018310547	
1737110816998	-0.018844604	
1737110816999	-0.03303528	
1737110817000	-0.04524231	
1737110817001	-0.0642395	
1737110817002	-0.07171631	
1737110817003	-0.06668091	
1737110817004	-0.049209595	
1737110817005	-0.043640137	
1737110817006	-0.035858154	
1737110817007	-0.03112793	
1737110817008	-0.039215088	
1737110817009	-0.021209717	
1737110817010	-0.00831604	
1737110817011	-0.009841919	
1737110817012	-0.00289917	
1737110817013	0.0012207031	
1737110817014	9.918213E-4	
1737110817015	0.00541687	
1737110817016	0.014801025	
1737110817017	0.010681152	
1737110817018	0.0075531006	
1737110817019	0.010528564	
1737110817020	0.008392334	
1737110817021	0.012435913	
1737110817022	0.016098022	
1737110817023	0.021743774	
1737110817024	0.027160645	
1737110817025	0.0390625	
1737110817026	0.032730103	
1737110817027	0.0012207031	
1737110817028	-0.0064086914	
1737110817029	0.005569458	
1737110817030	0.010757446	
1737110817031	0.009155273	
1737110817032	0.0038909912	
1737110817033	0.00289917	
1737110817034	0.007171631	
1737110817035	0.009307861	
1737110817036	0.004043579	
1737110817037	-0.0090789795	
1737110817038	-0.019378662	
1737110817039	-0.011520386	
1737110817040	-6.1035156E-4	
1737110817041	-0.008621216	
1737110817042	-0.011672974	
1737110817043	-0.014266968	
1737110817044	-0.015945435	
1737110817045	-0.0118255615	
1737110817046	-0.0063323975	
1737110817047	0.009689331	
1737110817048	0.0146484375	
1737110817049	0.015716553	
1737110817050	0.018615723	
1737110817051	0.02960205	
1737110817052	0.054626465	
1737110817053	0.045013428	
1737110817054	0.020065308	
1737110817055	0.014038086	
1737110817056	0.011978149	
1737110817057	0.0146484375	
1737110817058	0.008468628	
1737110817059	-0.0048828125	
1737110817060	-0.007095337	
1737110817061	-0.011978149	
1737110817062	-0.020523071	
1737110817063	-0.02609253	
1737110817064	-0.039901733	
1737110817065	-0.047454834	
1737110817066	-0.033340454	
1737110817067	-0.018310547	
1737110817068	-0.006866455	
1737110817069	6.1035156E-4	
1737110817070	-0.009384155	
1737110817071	-0.017852783	
1737110817072	-0.018692017	
1737110817073	-0.014419556	
1737110817074	-0.0037384033	
1737110817075	0.004501343	
1737110817076	0.012817383	
1737110817077	0.012207031	
1737110817078	0.018005371	
1737110817079	0.035247803	
1737110817080	0.016403198	
1737110817081	-0.017318726	
1737110817082	-0.028839111	
1737110817083	-0.019683838	
1737110817084	0.020980835	
1737110817085	0.064697266	
1737110817086	0.075302124	
1737110817087	0.040283203	
1737110817088	-0.0023651123	
1737110817089	-0.012741089	
1737110817090	0.038909912	
1737110817091	0.078430176	
1737110817092	0.001373291	
1737110817093	-0.04486084	
1737110817094	-0.088272095	
1737110817095	-0.18997192	
1737110817096	-0.10185242	
1737110817097	-0.0018310547	
1737110817098	-0.09017944	
1737110817099	-0.06355286	
1737110817100	0.08155823	
1737110817101	0.11138916	
1737110817102	0.06286621	
1737110817103	-0.021057129	
1737110817104	-0.082855225	
1737110817105	-0.023651123	
1737110817106	0.103530884	
1737110817107	0.14381409	
1737110817108	0.072021484	
1737110817109	0.06607056	
1737110817110	0.04966736	
1737110817111	-0.04257202	
1737110817112	-0.005264282	
1737110817113	0.038223267	
1737110817114	-0.09628296	
1737110817115	-0.109176636	
1737110817116	0.10108948	
1737110817117	0.119018555	
1737110817118	0.05180359	
1737110817119	0.07896423	
1737110817120	-0.05455017	
1737110817121	-0.18287659	
1737110817122	-0.13710022	
1737110817123	-0.20080566	
1737110817124	-0.22796631	
1737110817125	3.0517578E-4	
1737110817126	0.059280396	
1737110817127	0.018844604	
1737110817128	0.08216858	
1737110817129	0.06011963	
1737110817130	0.06362915	
1737110817131	0.055160522	
1737110817132	0.035476685	
1737110817133	0.054779053	
1737110817134	0.045318604	
1737110817135	0.06561279	
1737110817136	0.052337646	
1737110817137	0.0146484375	
1737110817138	-0.014801025	
1737110817139	-0.046539307	
1737110817140	-0.005264282	
1737110817141	0.023345947	
1737110817142	-0.008468628	
1737110817143	-0.002746582	
1737110817144	0.0132751465	
1737110817145	0.012435913	
1737110817146	0.0017547607	
1737110817147	-0.022964478	
1737110817148	-0.012435913	
1737110817149	-0.00579834	
1737110817150	-0.012664795	
1737110817151	-0.011367798	
1737110817152	-0.024108887	
1737110817153	-0.023345947	
1737110817154	-0.024261475	
1737110817155	-0.027160645	
1737110817156	-0.026779175	
1737110817157	-0.034866333	
1737110817158	-0.031433105	
1737110817159	-0.029754639	
1737110817160	-0.020523071	
1737110817161	-0.017547607	
1737110817162	-0.018081665	
1737110817163	3.0517578E-4	
1737110817164	-0.004196167	
1737110817165	-0.004196167	
1737110817166	0.011367798	
1737110817167	0.017089844	
1737110817168	0.02243042	
1737110817169	0.028381348	
1737110817170	0.029678345	
1737110817171	0.03440857	
1737110817172	0.03868103	
1737110817173	0.039520264	
1737110817174	0.04081726	
1737110817175	0.037612915	
1737110817176	0.0315094	
1737110817177	0.02960205	
1737110817178	0.024642944	
1737110817179	0.026016235	
1737110817180	0.010147095	
1737110817181	-5.340576E-4	
1737110817182	0.007171631	
1737110817183	-0.0035858154	
1737110817184	-0.0016784668	
1737110817185	-0.0051116943	
1737110817186	-0.021972656	
1737110817187	-0.026397705	
1737110817188	-0.035247803	
1737110817189	-0.033416748	
1737110817190	-0.022125244	
1737110817191	-0.030136108	
1737110817192	-0.028076172	
1737110817193	-0.01914978	
1737110817194	-0.012435913	
1737110817195	-0.01449585	
1737110817196	-0.018920898	
1737110817197	-0.0118255615	
1737110817198	-0.011520386	
1737110817199	-0.014419556	
1737110817200	-0.013046265	
1737110817201	-0.004119873	
1737110817202	-0.0022125244	
1737110817203	3.0517578E-4	
1737110817204	0.0051879883	
1737110817205	0.0036621094	
1737110817206	7.6293945E-5	
1737110817207	0.0011444092	
1737110817208	0.006866455	
1737110817209	0.01335144	
1737110817210	0.0119018555	
1737110817211	0.0119018555	
1737110817212	0.007095337	
1737110817213	0.014343262	
1737110817214	0.021591187	
1737110817215	0.01449585	
1737110817216	0.014572144	
1737110817217	0.016021729	
1737110817218	0.013580322	
1737110817219	0.014724731	
1737110817220	0.01159668	
1737110817221	0.008468628	
1737110817222	0.0074005127	
1737110817223	0.005264282	
1737110817224	0.0038146973	
1737110817225	0.005569458	
1737110817226	7.6293945E-5	
1737110817227	-0.008239746	
1737110817228	-0.0075531006	
1737110817229	-0.0046539307	
1737110817230	-0.0035095215	
1737110817231	-0.007171631	
1737110817232	-0.009841919	
1737110817233	-0.008926392	
1737110817234	-0.005569458	
1737110817235	-0.01449585	
1737110817236	-0.02166748	
1737110817237	-0.0025939941	
1737110817238	0.04638672	
1737110817239	0.08705139	
1737110817240	0.0605011	
1737110817241	0.004425049	
1737110817242	-0.09017944	
1737110817243	-0.22628784	
1737110817244	-0.16349792	
1737110817245	-0.0051116943	
1737110817246	0.0048828125	
1737110817247	0.019073486	
1737110817248	0.04219055	
1737110817249	0.023040771	
1737110817250	0.041427612	
1737110817251	0.046081543	
1737110817252	0.041732788	
1737110817253	0.048828125	
1737110817254	0.043792725	
1737110817255	0.040512085	
1737110817256	0.025787354	
1737110817257	0.015792847	
1737110817258	0.015335083	
1737110817259	0.005722046	
1737110817260	0.005722046	
1737110817261	0.007019043	
1737110817262	-0.0025939941	
1737110817263	-0.0075531006	
1737110817264	-0.005645752	
1737110817265	-9.918213E-4	
1737110817266	-0.0032043457	
1737110817267	-0.0090789795	
1737110817268	-0.007095337	
1737110817269	-0.011062622	
1737110817270	-0.017166138	
1737110817271	-0.014724731	
1737110817272	-0.017700195	
1737110817273	-0.021209717	
1737110817274	-0.019302368	
1737110817275	-0.017166138	
1737110817276	-0.016708374	
1737110817277	-0.016403198	
1737110817278	-0.011978149	
1737110817279	0.0033569336	
1737110817280	0.0051879883	
1737110817281	0.009613037	
1737110817282	0.0063323975	
1737110817283	-0.0019836426	
1737110817284	0.0035858154	
1737110817285	0.016403198	
1737110817286	0.015487671	
1737110817287	0.007858276	
1737110817288	0.0012207031	
1737110817289	0.004043579	
1737110817290	0.005722046	
1737110817291	0.005569458	
1737110817292	0.005264282	
1737110817293	0.011672974	
1737110817294	0.010757446	
