# OpenSignals Text File Format
# {"00:80:E1:26:9F:85":{"sensor":["EMG"],"device name":"00:80:E1:26:9F:85","column":["timestamp","EMG"],"sync interval":2,"time":"11:46:52","comments":"","keywords":"","device connection":"BLE00:80:E1:26:9F:85","channels":[0],"date":"2025-01-17","mode":0,"digital IO":[],"firmware version":259,"device":"musclebanplux","position":0,"sampling rate":1000,"label":["EMG"],"resolution":[16],"special":[{}],"sleeve color":["UNKNOWN"]}}
# EndOfHeader
1737110812920	-3.0517578E-4	
1737110812921	0.0076293945	
1737110812922	0.010910034	
1737110812923	0.0016784668	
1737110812924	0.002746582	
1737110812925	0.001449585	
1737110812926	-0.001449585	
1737110812927	-0.0025939941	
1737110812928	-0.0015258789	
1737110812929	-0.0065612793	
1737110812930	-0.012130737	
1737110812931	-0.0025177002	
1737110812932	7.6293945E-4	
1737110812933	-1.5258789E-4	
1737110812934	0.0016021729	
1737110812935	2.2888184E-4	
1737110812936	0.004348755	
1737110812937	0.0032043457	
1737110812938	-0.0021362305	
1737110812939	0.0	
1737110812940	-6.866455E-4	
1737110812941	-0.0045776367	
1737110812942	-0.0012207031	
1737110812943	0.00579834	
1737110812944	0.0038909912	
1737110812945	-0.0051879883	
1737110812946	-0.00579834	
1737110812947	-0.0010681152	
1737110812948	-0.0025939941	
1737110812949	1.5258789E-4	
1737110812950	0.006942749	
1737110812951	0.0049591064	
1737110812952	0.0051879883	
1737110812953	0.003967285	
1737110812954	-0.0016784668	
1737110812955	-8.392334E-4	
1737110812956	-0.0047302246	
1737110812957	-0.0019073486	
1737110812958	0.0015258789	
1737110812959	-0.0074005127	
1737110812960	-0.0074005127	
1737110812961	-0.0011444092	
1737110812962	0.0066375732	
1737110812963	0.00869751	
1737110812964	0.004043579	
1737110812965	0.00541687	
1737110812966	0.0035858154	
1737110812967	0.0016784668	
1737110812968	0.0034332275	
1737110812969	-6.866455E-4	
1737110812970	-0.0066375732	
1737110812971	-0.006790161	
1737110812972	-0.0046539307	
1737110812973	-0.0025177002	
1737110812974	3.8146973E-4	
1737110812975	-0.00541687	
1737110812976	-0.008392334	
1737110812977	-8.392334E-4	
1737110812978	0.0019836426	
1737110812979	0.0017547607	
1737110812980	0.0016784668	
1737110812981	-0.0020599365	
1737110812982	-0.0012969971	
1737110812983	0.0019836426	
1737110812984	-0.0015258789	
1737110812985	-4.5776367E-4	
1737110812986	0.0064849854	
1737110812987	0.0047302246	
1737110812988	-0.0023651123	
1737110812989	-3.8146973E-4	
1737110812990	0.005569458	
1737110812991	0.0012969971	
1737110812992	-0.0012969971	
1737110812993	0.0049591064	
1737110812994	0.002670288	
1737110812995	-0.0020599365	
1737110812996	0.004043579	
1737110812997	-8.392334E-4	
1737110812998	-0.005340576	
1737110812999	0.0046539307	
1737110813000	9.1552734E-4	
1737110813001	-0.0015258789	
1737110813002	0.00579834	
1737110813003	0.0017547607	
1737110813004	-0.004119873	
1737110813005	-0.0024414062	
1737110813006	-0.0010681152	
1737110813007	-0.0046539307	
1737110813008	-0.0060272217	
1737110813009	-0.0029754639	
1737110813010	3.8146973E-4	
1737110813011	-0.0011444092	
1737110813012	0.0015258789	
1737110813013	0.001373291	
1737110813014	-0.004501343	
1737110813015	0.0012969971	
1737110813016	0.0038146973	
1737110813017	0.0025939941	
1737110813018	-7.6293945E-4	
1737110813019	-0.004119873	
1737110813020	0.0016021729	
1737110813021	-6.1035156E-4	
1737110813022	0.0032806396	
1737110813023	0.007019043	
1737110813024	-0.0030517578	
1737110813025	-0.0035095215	
1737110813026	-0.0019073486	
1737110813027	-0.0015258789	
1737110813028	-6.866455E-4	
1737110813029	-0.0019836426	
1737110813030	-0.001373291	
1737110813031	0.0021362305	
1737110813032	0.0038146973	
1737110813033	0.0022125244	
1737110813034	0.005645752	
1737110813035	0.0047302246	
1737110813036	-0.0016784668	
1737110813037	-0.0016021729	
1737110813038	-0.004272461	
1737110813039	-0.0076293945	
1737110813040	0.0	
1737110813041	0.007019043	
1737110813042	0.009307861	
1737110813043	0.0032043457	
1737110813044	-0.0018310547	
1737110813045	-7.6293945E-4	
1737110813046	-0.008621216	
1737110813047	-0.0032043457	
1737110813048	0.0010681152	
1737110813049	-0.005264282	
1737110813050	0.0016021729	
1737110813051	-0.0022888184	
1737110813052	-0.008163452	
1737110813053	-0.004425049	
1737110813054	-2.2888184E-4	
1737110813055	0.004196167	
1737110813056	8.392334E-4	
1737110813057	0.005569458	
1737110813058	0.006713867	
1737110813059	0.0010681152	
1737110813060	0.0015258789	
1737110813061	-0.0021362305	
1737110813062	1.5258789E-4	
1737110813063	-0.0032806396	
1737110813064	-0.004119873	
1737110813065	0.0066375732	
1737110813066	0.0010681152	
1737110813067	0.004196167	
1737110813068	0.010528564	
1737110813069	-0.002822876	
1737110813070	-6.866455E-4	
1737110813071	0.0025177002	
1737110813072	-0.0074768066	
1737110813073	-0.0036621094	
1737110813074	-8.392334E-4	
1737110813075	-0.0012207031	
1737110813076	0.0025939941	
1737110813077	-9.918213E-4	
1737110813078	6.1035156E-4	
1737110813079	0.0021362305	
1737110813080	-0.0048828125	
1737110813081	-0.008010864	
1737110813082	-0.00579834	
1737110813083	0.0016784668	
1737110813084	0.009384155	
1737110813085	0.004272461	
1737110813086	-8.392334E-4	
1737110813087	-7.6293945E-4	
1737110813088	-0.0025177002	
1737110813089	0.0025177002	
1737110813090	0.0018310547	
1737110813091	-9.918213E-4	
1737110813092	0.008087158	
1737110813093	0.0061798096	
1737110813094	2.2888184E-4	
1737110813095	0.0035095215	
1737110813096	-0.0030517578	
1737110813097	-0.009613037	
1737110813098	-0.005722046	
1737110813099	-0.004119873	
1737110813100	-0.0020599365	
1737110813101	0.0016784668	
1737110813102	-3.8146973E-4	
1737110813103	-0.0046539307	
1737110813104	-0.007171631	
1737110813105	-0.00541687	
1737110813106	6.1035156E-4	
1737110813107	0.0036621094	
1737110813108	0.002670288	
1737110813109	-0.0023651123	
1737110813110	3.8146973E-4	
1737110813111	0.0025939941	
1737110813112	-0.001373291	
1737110813113	0.0032043457	
1737110813114	0.001449585	
1737110813115	-0.0015258789	
1737110813116	1.5258789E-4	
1737110813117	-0.004501343	
1737110813118	0.0018310547	
1737110813119	0.009002686	
1737110813120	0.005493164	
1737110813121	0.004425049	
1737110813122	0.0045776367	
1737110813123	0.0051116943	
1737110813124	0.0024414062	
1737110813125	0.00289917	
1737110813126	0.0032806396	
1737110813127	-0.0017547607	
1737110813128	-0.0016021729	
1737110813129	0.0025177002	
1737110813130	0.0019836426	
1737110813131	-0.0020599365	
1737110813132	-0.004119873	
1737110813133	-0.0022125244	
1737110813134	-6.1035156E-4	
1737110813135	-0.001449585	
1737110813136	-0.0015258789	
1737110813137	-0.004425049	
1737110813138	-0.007247925	
1737110813139	-0.0015258789	
1737110813140	0.0011444092	
1737110813141	-0.006713867	
1737110813142	-0.0012207031	
1737110813143	0.006713867	
1737110813144	-0.004348755	
1737110813145	-0.014801025	
1737110813146	-0.011444092	
1737110813147	4.5776367E-4	
1737110813148	3.0517578E-4	
1737110813149	-0.0032043457	
1737110813150	0.0012969971	
1737110813151	0.004501343	
1737110813152	0.010147095	
1737110813153	0.0076293945	
1737110813154	7.6293945E-4	
1737110813155	0.007171631	
1737110813156	0.01121521	
1737110813157	0.001373291	
1737110813158	-0.004043579	
1737110813159	-6.866455E-4	
1737110813160	6.866455E-4	
1737110813161	0.0063323975	
1737110813162	0.0035095215	
1737110813163	-9.1552734E-4	
1737110813164	0.008773804	
1737110813165	-0.0036621094	
1737110813166	-0.010681152	
1737110813167	0.0012969971	
1737110813168	-0.0018310547	
1737110813169	3.0517578E-4	
1737110813170	5.340576E-4	
1737110813171	-0.002822876	
1737110813172	-0.0023651123	
1737110813173	-3.0517578E-4	
1737110813174	0.004425049	
1737110813175	-0.006866455	
1737110813176	-0.009689331	
1737110813177	7.6293945E-5	
1737110813178	-0.003967285	
1737110813179	-0.002670288	
1737110813180	0.0035095215	
1737110813181	2.2888184E-4	
1737110813182	-0.0033569336	
1737110813183	-1.5258789E-4	
1737110813184	6.866455E-4	
1737110813185	6.866455E-4	
1737110813186	0.004272461	
1737110813187	9.918213E-4	
1737110813188	0.0010681152	
1737110813189	0.0032043457	
1737110813190	0.0019073486	
1737110813191	0.0073242188	
1737110813192	0.0037384033	
1737110813193	-0.0017547607	
1737110813194	0.0048065186	
1737110813195	0.001373291	
1737110813196	-0.006713867	
1737110813197	-0.0034332275	
1737110813198	-0.004043579	
1737110813199	-0.0076293945	
1737110813200	-0.001449585	
1737110813201	-0.0016021729	
1737110813202	-0.0015258789	
1737110813203	0.004119873	
1737110813204	3.8146973E-4	
1737110813205	0.0021362305	
1737110813206	0.005264282	
1737110813207	0.0010681152	
1737110813208	0.004196167	
1737110813209	0.007095337	
1737110813210	-4.5776367E-4	
1737110813211	-0.0015258789	
1737110813212	-0.0020599365	
1737110813213	-0.011749268	
1737110813214	-0.0022125244	
1737110813215	0.0075531006	
1737110813216	0.0012207031	
1737110813217	0.0023651123	
1737110813218	5.340576E-4	
1737110813219	-0.0016021729	
1737110813220	2.2888184E-4	
1737110813221	-0.00289917	
1737110813222	-0.0035858154	
1737110813223	-0.006790161	
1737110813224	-0.0025177002	
1737110813225	0.005874634	
1737110813226	0.0037384033	
1737110813227	0.0051879883	
1737110813228	-0.002746582	
1737110813229	-0.005493164	
1737110813230	0.0038909912	
1737110813231	-0.0045776367	
1737110813232	-0.007095337	
1737110813233	3.8146973E-4	
1737110813234	-4.5776367E-4	
1737110813235	0.0047302246	
1737110813236	0.010757446	
1737110813237	0.00579834	
1737110813238	-0.0016021729	
1737110813239	-0.009536743	
1737110813240	-0.008850098	
1737110813241	-0.0023651123	
1737110813242	-0.0035095215	
1737110813243	-0.0050354004	
1737110813244	-0.0032043457	
1737110813245	3.8146973E-4	
1737110813246	0.006790161	
1737110813247	0.015716553	
1737110813248	0.0132751465	
1737110813249	0.0032806396	
1737110813250	-0.004348755	
1737110813251	-0.010681152	
1737110813252	-0.0021362305	
1737110813253	0.0065612793	
1737110813254	0.004501343	
1737110813255	0.0019073486	
1737110813256	-0.0022888184	
1737110813257	-0.003967285	
1737110813258	6.866455E-4	
1737110813259	8.392334E-4	
1737110813260	-0.0036621094	
1737110813261	-9.918213E-4	
1737110813262	0.001449585	
1737110813263	-0.0022888184	
1737110813264	-0.0025177002	
1737110813265	0.0012969971	
1737110813266	0.0048828125	
1737110813267	0.0024414062	
1737110813268	-0.0016021729	
1737110813269	0.0011444092	
1737110813270	0.0033569336	
1737110813271	0.0011444092	
1737110813272	-0.0023651123	
1737110813273	-0.00541687	
1737110813274	-0.0049591064	
1737110813275	-0.0011444092	
1737110813276	-0.0016784668	
1737110813277	-9.1552734E-4	
1737110813278	0.0034332275	
1737110813279	0.0015258789	
1737110813280	0.0016021729	
1737110813281	5.340576E-4	
1737110813282	-0.0020599365	
1737110813283	-8.392334E-4	
1737110813284	-0.003967285	
1737110813285	9.1552734E-4	
1737110813286	1.5258789E-4	
1737110813287	-1.5258789E-4	
1737110813288	0.0031280518	
1737110813289	-0.012207031	
1737110813290	-0.008087158	
1737110813291	0.0015258789	
1737110813292	-0.001449585	
1737110813293	0.005874634	
1737110813294	0.0060272217	
1737110813295	0.0022125244	
1737110813296	0.0046539307	
1737110813297	0.0060272217	
1737110813298	0.0017547607	
1737110813299	-0.0032043457	
1737110813300	0.002822876	
1737110813301	0.0018310547	
1737110813302	-0.0061798096	
1737110813303	-0.0050354004	
1737110813304	-3.8146973E-4	
1737110813305	0.0033569336	
1737110813306	-0.0021362305	
1737110813307	-0.0012207031	
1737110813308	0.007247925	
1737110813309	0.0050354004	
1737110813310	0.0061798096	
1737110813311	0.005874634	
1737110813312	0.0016021729	
1737110813313	-0.004196167	
1737110813314	-0.010070801	
1737110813315	-0.0045776367	
1737110813316	-0.007171631	
1737110813317	-0.012817383	
1737110813318	-0.0048828125	
1737110813319	-0.0022888184	
1737110813320	-0.0019836426	
1737110813321	0.004119873	
1737110813322	0.0046539307	
1737110813323	0.0048828125	
1737110813324	0.008087158	
1737110813325	0.0019836426	
1737110813326	0.0023651123	
1737110813327	0.010986328	
1737110813328	0.004348755	
1737110813329	-0.0051879883	
1737110813330	0.0011444092	
1737110813331	0.0015258789	
1737110813332	-3.0517578E-4	
1737110813333	0.0048828125	
1737110813334	0.0019836426	
1737110813335	5.340576E-4	
1737110813336	-0.0016021729	
1737110813337	-0.007247925	
1737110813338	-0.004348755	
1737110813339	-0.004348755	
1737110813340	-0.010147095	
1737110813341	-0.012283325	
1737110813342	-0.0018310547	
1737110813343	0.00869751	
1737110813344	0.002746582	
1737110813345	0.0016784668	
1737110813346	0.001449585	
1737110813347	-0.0038909912	
1737110813348	-0.0010681152	
1737110813349	-0.0051879883	
1737110813350	-0.008163452	
1737110813351	0.0032043457	
1737110813352	0.009765625	
1737110813353	0.010299683	
1737110813354	0.0061798096	
1737110813355	-1.5258789E-4	
1737110813356	-7.6293945E-4	
1737110813357	-9.918213E-4	
1737110813358	0.0020599365	
1737110813359	0.001373291	
1737110813360	-0.0032806396	
1737110813361	7.6293945E-5	
1737110813362	3.8146973E-4	
1737110813363	-0.002670288	
1737110813364	0.0031280518	
1737110813365	0.008468628	
1737110813366	0.0024414062	
1737110813367	6.1035156E-4	
1737110813368	0.0025177002	
1737110813369	-0.0037384033	
1737110813370	-0.0073242188	
1737110813371	-0.008163452	
1737110813372	-0.0035858154	
1737110813373	0.002746582	
1737110813374	-0.001449585	
1737110813375	-0.001449585	
1737110813376	6.1035156E-4	
1737110813377	-0.0035858154	
1737110813378	-6.1035156E-4	
1737110813379	3.0517578E-4	
1737110813380	0.0031280518	
1737110813381	0.005722046	
1737110813382	-9.1552734E-4	
1737110813383	9.918213E-4	
1737110813384	0.0035095215	
1737110813385	0.004196167	
1737110813386	0.00579834	
1737110813387	-0.0031280518	
1737110813388	-0.00793457	
1737110813389	1.5258789E-4	
1737110813390	0.0017547607	
1737110813391	-0.0048828125	
1737110813392	-9.918213E-4	
1737110813393	0.00289917	
1737110813394	-0.0015258789	
1737110813395	0.0012969971	
1737110813396	0.0051879883	
1737110813397	0.0017547607	
1737110813398	-0.0032806396	
1737110813399	-0.0076293945	
1737110813400	-0.0047302246	
1737110813401	-0.0012969971	
1737110813402	-0.0046539307	
1737110813403	-0.002670288	
1737110813404	0.0017547607	
1737110813405	0.0019073486	
1737110813406	0.0048828125	
1737110813407	0.004272461	
1737110813408	-4.5776367E-4	
1737110813409	0.0018310547	
1737110813410	-3.8146973E-4	
1737110813411	-0.0061035156	
1737110813412	-0.0025939941	
1737110813413	-7.6293945E-4	
1737110813414	0.0064849854	
1737110813415	0.009689331	
1737110813416	3.8146973E-4	
1737110813417	0.0016021729	
1737110813418	0.0012207031	
1737110813419	-0.0063323975	
1737110813420	-9.1552734E-4	
1737110813421	0.0035095215	
1737110813422	4.5776367E-4	
1737110813423	9.918213E-4	
1737110813424	0.0025177002	
1737110813425	-0.0020599365	
1737110813426	-0.008087158	
1737110813427	-0.0048828125	
1737110813428	0.0029754639	
1737110813429	0.0050354004	
1737110813430	0.0030517578	
1737110813431	0.004272461	
1737110813432	0.002670288	
1737110813433	0.0037384033	
1737110813434	0.0025939941	
1737110813435	-0.008163452	
1737110813436	-0.006942749	
1737110813437	-0.006942749	
1737110813438	-0.01586914	
1737110813439	-0.01586914	
1737110813440	-0.0029754639	
1737110813441	0.020065308	
1737110813442	0.009918213	
1737110813443	-7.6293945E-5	
1737110813444	0.016326904	
1737110813445	0.008621216	
1737110813446	0.0031280518	
1737110813447	0.005569458	
1737110813448	-7.6293945E-4	
1737110813449	-0.008773804	
1737110813450	-0.008392334	
1737110813451	0.0020599365	
1737110813452	3.0517578E-4	
1737110813453	-0.0035858154	
1737110813454	-0.0012207031	
1737110813455	-0.0036621094	
1737110813456	-0.007095337	
1737110813457	-0.0030517578	
1737110813458	0.0034332275	
1737110813459	0.00579834	
1737110813460	0.004348755	
1737110813461	-0.0030517578	
1737110813462	-0.0023651123	
1737110813463	-9.1552734E-4	
1737110813464	-0.002822876	
1737110813465	-0.0019073486	
1737110813466	9.918213E-4	
1737110813467	0.0050354004	
1737110813468	-7.6293945E-4	
1737110813469	6.866455E-4	
1737110813470	0.0025939941	
1737110813471	-0.004348755	
1737110813472	-0.0031280518	
1737110813473	-0.0017547607	
1737110813474	-0.0022888184	
1737110813475	0.0023651123	
1737110813476	0.0030517578	
1737110813477	-0.0038146973	
1737110813478	0.0010681152	
1737110813479	0.006942749	
1737110813480	0.0035858154	
1737110813481	0.00289917	
1737110813482	-5.340576E-4	
1737110813483	5.340576E-4	
1737110813484	0.0073242188	
1737110813485	-0.0035095215	
1737110813486	-0.010070801	
1737110813487	-8.392334E-4	
1737110813488	-0.001449585	
1737110813489	0.0059509277	
1737110813490	0.006790161	
1737110813491	-0.002670288	
1737110813492	0.0032806396	
1737110813493	-0.003967285	
1737110813494	-0.009918213	
1737110813495	-0.005340576	
1737110813496	-0.0060272217	
1737110813497	0.0048065186	
1737110813498	0.00579834	
1737110813499	-0.004501343	
1737110813500	6.1035156E-4	
1737110813501	0.003967285	
1737110813502	0.0022125244	
1737110813503	0.0050354004	
1737110813504	0.0051879883	
1737110813505	-5.340576E-4	
1737110813506	-0.004348755	
1737110813507	-0.0016784668	
1737110813508	0.0012207031	
1737110813509	0.0012207031	
1737110813510	0.0011444092	
1737110813511	0.0062561035	
1737110813512	0.004119873	
1737110813513	-0.0035858154	
1737110813514	-0.0074768066	
1737110813515	-0.0104522705	
1737110813516	-0.005264282	
1737110813517	-0.0045776367	
1737110813518	-0.0032043457	
1737110813519	0.00289917	
1737110813520	0.0012207031	
1737110813521	0.002822876	
1737110813522	0.0061035156	
1737110813523	0.0035095215	
1737110813524	0.0061798096	
1737110813525	0.0061035156	
1737110813526	-7.6293945E-4	
1737110813527	0.0022125244	
1737110813528	0.001373291	
1737110813529	3.8146973E-4	
1737110813530	3.8146973E-4	
1737110813531	-0.011062622	
1737110813532	-0.0051879883	
1737110813533	0.0023651123	
1737110813534	-0.0032806396	
1737110813535	-4.5776367E-4	
1737110813536	0.001373291	
1737110813537	0.0012969971	
1737110813538	0.0048828125	
1737110813539	0.0036621094	
1737110813540	-0.0032043457	
1737110813541	-0.009231567	
1737110813542	-0.009155273	
1737110813543	-0.0023651123	
1737110813544	0.004043579	
1737110813545	0.004348755	
1737110813546	0.004119873	
1737110813547	0.005264282	
1737110813548	0.0038146973	
1737110813549	0.0045776367	
1737110813550	-1.5258789E-4	
1737110813551	-0.01121521	
1737110813552	-0.008468628	
1737110813553	0.0016784668	
1737110813554	0.0020599365	
1737110813555	0.005722046	
1737110813556	0.0077056885	
1737110813557	-0.0019073486	
1737110813558	-0.004196167	
1737110813559	-0.0038146973	
1737110813560	-0.0020599365	
1737110813561	-4.5776367E-4	
1737110813562	-0.004501343	
1737110813563	7.6293945E-5	
1737110813564	3.8146973E-4	
1737110813565	0.0048065186	
1737110813566	0.011520386	
1737110813567	0.0024414062	
1737110813568	-6.866455E-4	
1737110813569	-0.0023651123	
1737110813570	-0.002670288	
1737110813571	-7.6293945E-4	
1737110813572	-0.0066375732	
1737110813573	5.340576E-4	
1737110813574	0.010604858	
1737110813575	0.0025939941	
1737110813576	-0.0025177002	
1737110813577	-0.0012207031	
1737110813578	3.0517578E-4	
1737110813579	0.0035095215	
1737110813580	-0.0020599365	
1737110813581	-0.0047302246	
1737110813582	-0.0018310547	
1737110813583	-3.8146973E-4	
1737110813584	0.0015258789	
1737110813585	4.5776367E-4	
1737110813586	8.392334E-4	
1737110813587	-0.004272461	
1737110813588	-0.0037384033	
1737110813589	0.007858276	
1737110813590	0.0074005127	
1737110813591	0.0034332275	
1737110813592	0.0034332275	
1737110813593	-0.0018310547	
1737110813594	-0.008544922	
1737110813595	-0.008850098	
1737110813596	-0.0022125244	
1737110813597	-0.0038909912	
1737110813598	-0.0034332275	
1737110813599	-0.0011444092	
1737110813600	-0.005569458	
1737110813601	6.1035156E-4	
1737110813602	0.0017547607	
1737110813603	0.0012969971	
1737110813604	0.0048065186	
1737110813605	-0.0034332275	
1737110813606	-9.1552734E-4	
1737110813607	0.0033569336	
1737110813608	0.0035095215	
1737110813609	0.0064849854	
1737110813610	0.002746582	
1737110813611	7.6293945E-4	
1737110813612	8.392334E-4	
1737110813613	-0.003967285	
1737110813614	-0.009002686	
1737110813615	-0.0065612793	
1737110813616	-3.8146973E-4	
1737110813617	0.0031280518	
1737110813618	0.004196167	
1737110813619	0.0022125244	
1737110813620	3.0517578E-4	
1737110813621	0.0029754639	
1737110813622	0.004501343	
1737110813623	0.005874634	
1737110813624	0.009765625	
1737110813625	0.006713867	
1737110813626	-7.6293945E-5	
1737110813627	-0.001449585	
1737110813628	-2.2888184E-4	
1737110813629	-0.004272461	
1737110813630	-0.0077819824	
1737110813631	-0.0064849854	
1737110813632	-0.005340576	
1737110813633	-6.1035156E-4	
1737110813634	-0.0010681152	
1737110813635	-0.001449585	
1737110813636	-0.0021362305	
1737110813637	-0.0036621094	
1737110813638	0.0032043457	
1737110813639	-2.2888184E-4	
1737110813640	0.0036621094	
1737110813641	0.011138916	
1737110813642	4.5776367E-4	
1737110813643	-0.0064849854	
1737110813644	-0.0032043457	
1737110813645	0.004043579	
1737110813646	0.0035858154	
1737110813647	7.6293945E-5	
1737110813648	0.004272461	
1737110813649	-2.2888184E-4	
1737110813650	-0.009307861	
1737110813651	-0.007858276	
1737110813652	-9.1552734E-4	
1737110813653	0.005874634	
1737110813654	0.005493164	
1737110813655	-1.5258789E-4	
1737110813656	-0.0024414062	
1737110813657	-0.005340576	
1737110813658	-0.006713867	
1737110813659	-3.0517578E-4	
1737110813660	0.004348755	
1737110813661	0.0012207031	
1737110813662	7.6293945E-4	
1737110813663	8.392334E-4	
1737110813664	0.001373291	
1737110813665	0.004119873	
1737110813666	0.0035858154	
1737110813667	0.0024414062	
1737110813668	8.392334E-4	
1737110813669	2.2888184E-4	
1737110813670	-0.0024414062	
1737110813671	-0.002822876	
1737110813672	-0.0035858154	
1737110813673	-0.0036621094	
1737110813674	-7.6293945E-4	
1737110813675	-0.0024414062	
1737110813676	-3.0517578E-4	
1737110813677	0.0064086914	
1737110813678	0.006713867	
1737110813679	0.0	
1737110813680	-0.0012969971	
1737110813681	-0.0012207031	
1737110813682	-0.0033569336	
1737110813683	0.0020599365	
1737110813684	0.0045776367	
1737110813685	0.0017547607	
1737110813686	-0.0021362305	
1737110813687	7.6293945E-5	
1737110813688	0.004272461	
1737110813689	-8.392334E-4	
1737110813690	2.2888184E-4	
1737110813691	0.00289917	
1737110813692	-0.0025939941	
1737110813693	-0.0051116943	
1737110813694	-0.004196167	
1737110813695	-0.0047302246	
1737110813696	-0.005264282	
1737110813697	-0.0033569336	
1737110813698	0.0012207031	
1737110813699	-0.0024414062	
1737110813700	-0.0031280518	
1737110813701	0.004119873	
1737110813702	-6.1035156E-4	
1737110813703	0.0017547607	
1737110813704	0.007858276	
1737110813705	9.1552734E-4	
1737110813706	0.0034332275	
1737110813707	0.0051116943	
1737110813708	0.0016784668	
1737110813709	0.0016021729	
1737110813710	-0.0015258789	
1737110813711	-6.866455E-4	
1737110813712	-9.1552734E-4	
1737110813713	-0.0024414062	
1737110813714	0.004501343	
1737110813715	0.0012207031	
1737110813716	-0.008239746	
1737110813717	-0.004043579	
1737110813718	-0.0031280518	
1737110813719	-0.0018310547	
1737110813720	0.004119873	
1737110813721	0.0038909912	
1737110813722	0.005569458	
1737110813723	0.008010864	
1737110813724	0.002822876	
1737110813725	-0.0012969971	
1737110813726	-0.0018310547	
1737110813727	0.001373291	
1737110813728	0.004348755	
1737110813729	-0.0032043457	
1737110813730	-0.0037384033	
1737110813731	1.5258789E-4	
1737110813732	-0.0051116943	
1737110813733	-0.009765625	
1737110813734	-0.008926392	
1737110813735	-0.0047302246	
1737110813736	8.392334E-4	
1737110813737	0.0025177002	
1737110813738	-0.0020599365	
1737110813739	-6.1035156E-4	
1737110813740	-0.0016021729	
1737110813741	7.6293945E-5	
1737110813742	0.007858276	
1737110813743	0.0065612793	
1737110813744	0.004196167	
1737110813745	-0.004501343	
1737110813746	-0.0024414062	
1737110813747	0.007095337	
1737110813748	0.0025939941	
1737110813749	0.0030517578	
1737110813750	0.0020599365	
1737110813751	0.0032043457	
1737110813752	0.008239746	
1737110813753	0.004196167	
1737110813754	-0.004425049	
1737110813755	-0.010299683	
1737110813756	-0.009613037	
1737110813757	-0.0048065186	
1737110813758	-2.2888184E-4	
1737110813759	2.2888184E-4	
1737110813760	0.0016021729	
1737110813761	0.0022888184	
1737110813762	3.0517578E-4	
1737110813763	-7.6293945E-5	
1737110813764	9.1552734E-4	
1737110813765	0.0025177002	
1737110813766	-0.0015258789	
1737110813767	-0.0017547607	
1737110813768	0.0015258789	
1737110813769	-6.1035156E-4	
1737110813770	-2.2888184E-4	
1737110813771	6.866455E-4	
1737110813772	0.0012969971	
1737110813773	0.0022125244	
1737110813774	1.5258789E-4	
1737110813775	-7.6293945E-5	
1737110813776	4.5776367E-4	
1737110813777	0.0030517578	
1737110813778	0.0031280518	
1737110813779	-0.0031280518	
1737110813780	-0.002670288	
1737110813781	-0.0024414062	
1737110813782	-0.005493164	
1737110813783	-3.8146973E-4	
1737110813784	0.005645752	
1737110813785	0.0016021729	
1737110813786	-0.0038146973	
1737110813787	-0.0017547607	
1737110813788	6.866455E-4	
1737110813789	0.0023651123	
1737110813790	0.0016784668	
1737110813791	-0.0017547607	
1737110813792	-0.0064849854	
1737110813793	-0.0032043457	
1737110813794	0.0038909912	
1737110813795	-0.0023651123	
1737110813796	-0.005493164	
1737110813797	0.0011444092	
1737110813798	0.0019073486	
1737110813799	0.0024414062	
1737110813800	0.0025939941	
1737110813801	-0.0017547607	
1737110813802	-0.0016784668	
1737110813803	-0.0012969971	
1737110813804	-4.5776367E-4	
1737110813805	0.0062561035	
1737110813806	0.007019043	
1737110813807	0.0045776367	
1737110813808	0.0019073486	
1737110813809	-0.0033569336	
1737110813810	9.1552734E-4	
1737110813811	0.0030517578	
1737110813812	-0.0012969971	
1737110813813	-0.0049591064	
1737110813814	-5.340576E-4	
1737110813815	0.0035858154	
1737110813816	-0.0025177002	
1737110813817	-5.340576E-4	
1737110813818	0.00289917	
1737110813819	-0.002822876	
1737110813820	-7.6293945E-4	
1737110813821	0.007019043	
1737110813822	-0.0020599365	
1737110813823	-0.007858276	
1737110813824	-0.002670288	
1737110813825	0.0021362305	
1737110813826	0.013198853	
1737110813827	0.012664795	
1737110813828	0.0019073486	
1737110813829	-0.004043579	
1737110813830	-0.008773804	
1737110813831	-0.006942749	
1737110813832	-0.0048828125	
1737110813833	-0.012512207	
1737110813834	-0.011672974	
1737110813835	-0.0061798096	
1737110813836	-0.0066375732	
1737110813837	0.001449585	
1737110813838	0.010299683	
1737110813839	0.009536743	
1737110813840	0.008163452	
1737110813841	0.0074768066	
1737110813842	0.0073242188	
1737110813843	0.00579834	
1737110813844	-0.0031280518	
1737110813845	-7.6293945E-5	
1737110813846	0.0077056885	
1737110813847	-0.002822876	
1737110813848	-0.0074005127	
1737110813849	-0.0074768066	
1737110813850	-0.0062561035	
1737110813851	0.00289917	
1737110813852	-0.0035858154	
1737110813853	-0.0066375732	
1737110813854	0.0010681152	
1737110813855	0.003967285	
1737110813856	0.0020599365	
1737110813857	0.001449585	
1737110813858	0.0032806396	
1737110813859	-0.0032043457	
1737110813860	-0.004348755	
1737110813861	-0.0065612793	
1737110813862	-0.005264282	
1737110813863	0.004348755	
1737110813864	0.002670288	
1737110813865	0.0035858154	
1737110813866	0.0063323975	
1737110813867	3.8146973E-4	
1737110813868	0.0066375732	
1737110813869	0.011138916	
1737110813870	0.0016784668	
1737110813871	-0.0011444092	
1737110813872	-0.0025177002	
1737110813873	0.0010681152	
1737110813874	0.0047302246	
1737110813875	0.0022125244	
1737110813876	0.0060272217	
1737110813877	-0.0023651123	
1737110813878	-0.012359619	
1737110813879	-0.0031280518	
1737110813880	-0.0016021729	
1737110813881	-0.005493164	
1737110813882	-0.0045776367	
1737110813883	-0.007095337	
1737110813884	-0.005340576	
1737110813885	-0.0032043457	
1737110813886	-0.0017547607	
1737110813887	-5.340576E-4	
1737110813888	-0.004272461	
1737110813889	5.340576E-4	
1737110813890	0.0075531006	
1737110813891	0.00793457	
1737110813892	0.0061798096	
1737110813893	-8.392334E-4	
1737110813894	-0.0036621094	
1737110813895	0.0019073486	
1737110813896	0.0012969971	
1737110813897	-0.001373291	
1737110813898	-1.5258789E-4	
1737110813899	2.2888184E-4	
1737110813900	0.005722046	
1737110813901	0.0061798096	
1737110813902	9.1552734E-4	
1737110813903	3.8146973E-4	
1737110813904	-8.392334E-4	
1737110813905	0.007095337	
1737110813906	0.0065612793	
1737110813907	-0.0038146973	
1737110813908	7.6293945E-5	
1737110813909	-9.918213E-4	
1737110813910	-0.003967285	
1737110813911	0.002746582	
1737110813912	0.0011444092	
1737110813913	-0.0020599365	
1737110813914	-0.005645752	
1737110813915	-0.0063323975	
1737110813916	-0.0024414062	
1737110813917	-0.0034332275	
1737110813918	-0.0017547607	
1737110813919	0.0025939941	
1737110813920	-0.0036621094	
1737110813921	-0.009231567	
1737110813922	-0.0037384033	
1737110813923	-3.0517578E-4	
1737110813924	-0.0012207031	
1737110813925	0.0032806396	
1737110813926	0.009918213	
1737110813927	0.008621216	
1737110813928	0.001449585	
1737110813929	4.5776367E-4	
1737110813930	0.003967285	
1737110813931	0.0077056885	
1737110813932	0.00541687	
1737110813933	-0.0022125244	
1737110813934	-0.0034332275	
1737110813935	3.0517578E-4	
1737110813936	0.00289917	
1737110813937	-7.6293945E-4	
1737110813938	-0.010757446	
1737110813939	-0.009460449	
1737110813940	-0.0036621094	
1737110813941	-0.0032806396	
1737110813942	-7.6293945E-4	
1737110813943	-9.918213E-4	
1737110813944	-7.6293945E-5	
1737110813945	-3.8146973E-4	
1737110813946	0.0030517578	
1737110813947	0.009765625	
1737110813948	0.0019836426	
1737110813949	-0.0048828125	
1737110813950	-0.0035095215	
1737110813951	4.5776367E-4	
1737110813952	0.005493164	
1737110813953	0.0031280518	
1737110813954	-0.001449585	
1737110813955	-0.0011444092	
1737110813956	0.0038146973	
1737110813957	6.866455E-4	
1737110813958	-0.0047302246	
1737110813959	5.340576E-4	
1737110813960	0.0037384033	
1737110813961	-0.0017547607	
1737110813962	-0.0022888184	
1737110813963	0.0038146973	
1737110813964	-0.0016021729	
1737110813965	-0.0022888184	
1737110813966	0.008773804	
1737110813967	0.00579834	
1737110813968	0.0016021729	
1737110813969	7.6293945E-5	
1737110813970	-4.5776367E-4	
1737110813971	0.0022888184	
1737110813972	-0.0016021729	
1737110813973	-0.002746582	
1737110813974	-0.001373291	
1737110813975	-0.0011444092	
1737110813976	-0.0019836426	
1737110813977	-0.006790161	
1737110813978	-0.0061035156	
1737110813979	-0.0032806396	
1737110813980	-0.0011444092	
1737110813981	0.0032806396	
1737110813982	0.001449585	
1737110813983	-6.866455E-4	
1737110813984	-0.0011444092	
1737110813985	-0.0016021729	
1737110813986	0.0029754639	
1737110813987	0.0012207031	
1737110813988	-0.0011444092	
1737110813989	3.0517578E-4	
1737110813990	0.0018310547	
1737110813991	0.005645752	
1737110813992	0.0061798096	
1737110813993	0.0012207031	
1737110813994	-0.002822876	
1737110813995	-0.0029754639	
1737110813996	-0.004043579	
1737110813997	-0.004501343	
1737110813998	-0.0025939941	
1737110813999	-0.0025939941	
1737110814000	-0.0019836426	
1737110814001	0.0010681152	
1737110814002	0.0059509277	
1737110814003	0.0064849854	
1737110814004	-5.340576E-4	
1737110814005	0.0046539307	
1737110814006	0.007858276	
1737110814007	0.0038146973	
1737110814008	0.0037384033	
1737110814009	0.0051879883	
1737110814010	0.0037384033	
1737110814011	-0.009613037	
1737110814012	-0.013809204	
1737110814013	-0.009841919	
1737110814014	-0.0062561035	
1737110814015	0.004043579	
1737110814016	0.0036621094	
1737110814017	-6.1035156E-4	
1737110814018	-0.0016021729	
1737110814019	9.918213E-4	
1737110814020	0.0016021729	
1737110814021	-0.0010681152	
1737110814022	0.0032806396	
1737110814023	-9.918213E-4	
1737110814024	-0.005874634	
1737110814025	0.0010681152	
1737110814026	0.0061035156	
1737110814027	0.0033569336	
1737110814028	-2.2888184E-4	
1737110814029	-5.340576E-4	
1737110814030	0.0037384033	
1737110814031	0.004272461	
1737110814032	2.2888184E-4	
1737110814033	0.001373291	
1737110814034	2.2888184E-4	
1737110814035	-0.0019073486	
1737110814036	-0.0038146973	
1737110814037	-0.005645752	
1737110814038	-0.005645752	
1737110814039	-0.0020599365	
1737110814040	0.001449585	
1737110814041	-0.0019836426	
1737110814042	0.0018310547	
1737110814043	0.0047302246	
1737110814044	-0.0016784668	
1737110814045	0.004348755	
1737110814046	0.0032043457	
1737110814047	-0.0017547607	
1737110814048	0.004043579	
1737110814049	-0.0021362305	
1737110814050	-0.0051879883	
1737110814051	-0.0010681152	
1737110814052	-0.0046539307	
1737110814053	-0.0017547607	
1737110814054	3.0517578E-4	
1737110814055	-0.0025177002	
1737110814056	0.004196167	
1737110814057	0.00541687	
1737110814058	-4.5776367E-4	
1737110814059	7.6293945E-4	
1737110814060	0.003967285	
1737110814061	0.0029754639	
1737110814062	8.392334E-4	
1737110814063	-7.6293945E-4	
1737110814064	6.1035156E-4	
1737110814065	3.0517578E-4	
1737110814066	0.0029754639	
1737110814067	0.0050354004	
1737110814068	0.0032806396	
1737110814069	0.0035858154	
1737110814070	2.2888184E-4	
1737110814071	-0.0031280518	
1737110814072	-0.0051116943	
1737110814073	-0.009307861	
1737110814074	-0.007858276	
1737110814075	-0.0035095215	
1737110814076	-0.0024414062	
1737110814077	-8.392334E-4	
1737110814078	-5.340576E-4	
1737110814079	0.0	
1737110814080	0.0061035156	
1737110814081	0.0051879883	
1737110814082	0.0047302246	
1737110814083	0.0030517578	
1737110814084	-0.0033569336	
1737110814085	-0.0029754639	
1737110814086	-0.0010681152	
1737110814087	-0.0051116943	
1737110814088	-0.0060272217	
1737110814089	0.0022125244	
1737110814090	0.0045776367	
1737110814091	9.918213E-4	
1737110814092	0.0051879883	
1737110814093	0.004119873	
1737110814094	0.004501343	
1737110814095	0.010147095	
1737110814096	0.001449585	
1737110814097	-0.0036621094	
1737110814098	-0.0062561035	
1737110814099	-0.014724731	
1737110814100	-0.0030517578	
1737110814101	0.004425049	
1737110814102	-0.0051116943	
1737110814103	-0.0020599365	
1737110814104	0.0032043457	
1737110814105	0.003967285	
1737110814106	0.0060272217	
1737110814107	6.1035156E-4	
1737110814108	-0.0025177002	
1737110814109	0.004501343	
1737110814110	0.005645752	
1737110814111	-4.5776367E-4	
1737110814112	-0.00793457	
1737110814113	-0.00831604	
1737110814114	1.5258789E-4	
1737110814115	-0.0022888184	
1737110814116	-0.0063323975	
1737110814117	0.005264282	
1737110814118	0.0051116943	
1737110814119	-6.866455E-4	
1737110814120	-0.0015258789	
1737110814121	4.5776367E-4	
1737110814122	0.008010864	
1737110814123	0.0030517578	
1737110814124	-9.918213E-4	
1737110814125	-0.0022888184	
1737110814126	-0.004272461	
1737110814127	7.6293945E-4	
1737110814128	0.00289917	
1737110814129	0.0049591064	
1737110814130	0.003967285	
1737110814131	-0.0011444092	
1737110814132	3.8146973E-4	
1737110814133	0.004196167	
1737110814134	0.0048828125	
1737110814135	0.0020599365	
1737110814136	-0.0074005127	
1737110814137	-0.0063323975	
1737110814138	-0.0025939941	
1737110814139	-0.004196167	
1737110814140	-0.003967285	
1737110814141	-0.003967285	
1737110814142	0.0033569336	
1737110814143	0.001449585	
1737110814144	-5.340576E-4	
1737110814145	0.005874634	
1737110814146	0.0011444092	
1737110814147	-0.0022888184	
1737110814148	-0.0012969971	
1737110814149	-0.0018310547	
1737110814150	-0.0035095215	
1737110814151	0.0012207031	
1737110814152	0.0018310547	
1737110814153	-0.002822876	
1737110814154	0.0029754639	
1737110814155	0.0	
1737110814156	-0.0032806396	
1737110814157	0.0023651123	
1737110814158	0.0023651123	
1737110814159	0.004425049	
1737110814160	0.0034332275	
1737110814161	-0.0032806396	
1737110814162	-0.0029754639	
1737110814163	-0.0063323975	
1737110814164	-0.002822876	
1737110814165	0.013961792	
1737110814166	0.0064849854	
1737110814167	-0.0047302246	
1737110814168	0.0034332275	
1737110814169	-0.0031280518	
1737110814170	-0.002670288	
1737110814171	0.0030517578	
1737110814172	3.0517578E-4	
1737110814173	0.0050354004	
1737110814174	9.918213E-4	
1737110814175	-0.0022125244	
1737110814176	-0.002822876	
1737110814177	-0.0051879883	
1737110814178	-0.0012207031	
1737110814179	-0.0037384033	
1737110814180	-3.8146973E-4	
1737110814181	0.0051116943	
1737110814182	-3.8146973E-4	
1737110814183	-6.1035156E-4	
1737110814184	0.0022888184	
1737110814185	6.1035156E-4	
1737110814186	0.0021362305	
1737110814187	0.0012969971	
1737110814188	6.1035156E-4	
1737110814189	-0.0023651123	
1737110814190	-0.0033569336	
1737110814191	1.5258789E-4	
1737110814192	-0.0029754639	
1737110814193	-0.0019836426	
1737110814194	-6.866455E-4	
1737110814195	0.0011444092	
1737110814196	0.00579834	
1737110814197	0.0049591064	
1737110814198	0.001373291	
1737110814199	-0.0017547607	
1737110814200	0.0011444092	
1737110814201	-0.0015258789	
1737110814202	-0.005722046	
1737110814203	-0.0035095215	
1737110814204	-0.0074768066	
1737110814205	-0.005340576	
1737110814206	0.00289917	
1737110814207	0.0065612793	
1737110814208	0.0024414062	
1737110814209	0.0011444092	
1737110814210	0.0012969971	
1737110814211	-0.0018310547	
1737110814212	0.001373291	
1737110814213	-0.0022125244	
1737110814214	-6.866455E-4	
1737110814215	0.0015258789	
1737110814216	-0.0022125244	
1737110814217	0.005264282	
1737110814218	5.340576E-4	
1737110814219	-0.0060272217	
1737110814220	0.0034332275	
1737110814221	0.0032806396	
1737110814222	8.392334E-4	
1737110814223	0.0023651123	
1737110814224	-0.0022125244	
1737110814225	0.0022125244	
1737110814226	0.005340576	
1737110814227	0.0020599365	
1737110814228	0.004196167	
1737110814229	0.00579834	
1737110814230	0.0025939941	
1737110814231	-0.008239746	
1737110814232	-0.009460449	
1737110814233	-0.0016784668	
1737110814234	-0.002822876	
1737110814235	0.0062561035	
1737110814236	0.006713867	
1737110814237	-3.8146973E-4	
1737110814238	0.0011444092	
1737110814239	-0.00793457	
1737110814240	-0.0119018555	
1737110814241	-0.009155273	
1737110814242	-0.008544922	
1737110814243	-7.6293945E-4	
1737110814244	0.0050354004	
1737110814245	7.6293945E-5	
1737110814246	3.0517578E-4	
1737110814247	0.01083374	
1737110814248	0.009536743	
1737110814249	0.0029754639	
1737110814250	0.005264282	
1737110814251	0.0019836426	
1737110814252	-0.0015258789	
1737110814253	0.00541687	
1737110814254	0.007171631	
1737110814255	-6.1035156E-4	
1737110814256	-0.005645752	
1737110814257	-0.008392334	
1737110814258	-0.0034332275	
1737110814259	0.002822876	
1737110814260	-2.2888184E-4	
1737110814261	-5.340576E-4	
1737110814262	-0.0010681152	
1737110814263	-0.0035858154	
1737110814264	-0.0035858154	
1737110814265	-0.005645752	
1737110814266	-0.0033569336	
1737110814267	0.0033569336	
1737110814268	-0.001373291	
1737110814269	-0.0048828125	
1737110814270	-7.6293945E-5	
1737110814271	0.0012969971	
1737110814272	0.001449585	
1737110814273	0.005569458	
1737110814274	0.00579834	
1737110814275	0.0031280518	
1737110814276	0.0016784668	
1737110814277	1.5258789E-4	
1737110814278	7.6293945E-4	
1737110814279	0.001373291	
1737110814280	0.0	
1737110814281	-0.0030517578	
1737110814282	-3.8146973E-4	
1737110814283	0.0015258789	
1737110814284	-3.8146973E-4	
1737110814285	0.001373291	
1737110814286	0.0017547607	
1737110814287	5.340576E-4	
1737110814288	-0.0048828125	
1737110814289	-0.005493164	
1737110814290	0.0025177002	
1737110814291	0.003967285	
1737110814292	0.0025939941	
1737110814293	-0.001449585	
1737110814294	-0.0029754639	
1737110814295	-0.0061798096	
1737110814296	-0.006790161	
1737110814297	-0.0012207031	
1737110814298	2.2888184E-4	
1737110814299	0.0048065186	
1737110814300	0.0048065186	
1737110814301	0.0019836426	
1737110814302	0.0049591064	
1737110814303	0.0016021729	
1737110814304	0.003967285	
1737110814305	0.006790161	
1737110814306	-0.0024414062	
1737110814307	-0.0048828125	
1737110814308	-0.001449585	
1737110814309	0.001449585	
1737110814310	-9.1552734E-4	
1737110814311	-0.002746582	
1737110814312	-0.0030517578	
1737110814313	-0.0060272217	
1737110814314	-0.0016784668	
1737110814315	-2.2888184E-4	
1737110814316	-8.392334E-4	
1737110814317	0.004043579	
1737110814318	0.0010681152	
1737110814319	0.0024414062	
1737110814320	0.0020599365	
1737110814321	-0.001449585	
1737110814322	0.0035858154	
1737110814323	0.0024414062	
1737110814324	-6.1035156E-4	
1737110814325	1.5258789E-4	
1737110814326	-0.0015258789	
1737110814327	-0.0015258789	
1737110814328	0.0032806396	
1737110814329	-6.866455E-4	
1737110814330	-9.1552734E-4	
1737110814331	0.004196167	
1737110814332	9.1552734E-4	
1737110814333	0.0023651123	
1737110814334	9.1552734E-4	
1737110814335	-0.014190674	
1737110814336	-0.01701355	
1737110814337	-0.0062561035	
1737110814338	0.003967285	
1737110814339	0.004425049	
1737110814340	4.5776367E-4	
1737110814341	0.0062561035	
1737110814342	0.0035095215	
1737110814343	-5.340576E-4	
1737110814344	0.0019073486	
1737110814345	0.0051116943	
1737110814346	0.004196167	
1737110814347	0.004043579	
1737110814348	0.0065612793	
1737110814349	-0.0021362305	
1737110814350	-0.0010681152	
1737110814351	0.0035095215	
1737110814352	-8.392334E-4	
1737110814353	-9.1552734E-4	
1737110814354	-0.0012207031	
1737110814355	0.0018310547	
1737110814356	0.0051116943	
1737110814357	-0.002670288	
1737110814358	-0.0064086914	
1737110814359	-0.0046539307	
1737110814360	-0.004119873	
1737110814361	-0.0030517578	
1737110814362	-0.0024414062	
1737110814363	0.0037384033	
1737110814364	4.5776367E-4	
1737110814365	-0.0051879883	
1737110814366	0.0035095215	
1737110814367	0.0021362305	
1737110814368	-0.006942749	
1737110814369	-0.009460449	
1737110814370	-0.007095337	
1737110814371	-0.004196167	
1737110814372	0.0016784668	
1737110814373	0.008010864	
1737110814374	0.0077819824	
1737110814375	0.0021362305	
1737110814376	0.008087158	
1737110814377	0.013885498	
1737110814378	-0.006790161	
1737110814379	-0.020751953	
1737110814380	-0.0066375732	
1737110814381	0.0035095215	
1737110814382	0.005722046	
1737110814383	0.00869751	
1737110814384	0.015335083	
1737110814385	0.0077056885	
1737110814386	-0.0017547607	
1737110814387	0.0062561035	
1737110814388	0.0035858154	
1737110814389	-0.0037384033	
1737110814390	7.6293945E-5	
1737110814391	0.0016021729	
1737110814392	-0.002670288	
1737110814393	-0.0016021729	
1737110814394	-0.0012207031	
1737110814395	-0.0064086914	
1737110814396	-0.004043579	
1737110814397	-0.0049591064	
1737110814398	-0.0064086914	
1737110814399	-0.002822876	
1737110814400	-0.007095337	
1737110814401	-0.008239746	
1737110814402	-0.0022888184	
1737110814403	0.005340576	
1737110814404	0.007858276	
1737110814405	-0.0019073486	
1737110814406	-7.6293945E-4	
1737110814407	0.0048065186	
1737110814408	9.918213E-4	
1737110814409	0.004043579	
1737110814410	0.002822876	
1737110814411	6.1035156E-4	
1737110814412	0.0035095215	
1737110814413	-0.0016784668	
1737110814414	-0.0051879883	
1737110814415	-0.0038909912	
1737110814416	-0.0032806396	
1737110814417	-0.001373291	
1737110814418	1.5258789E-4	
1737110814419	0.0077819824	
1737110814420	0.012283325	
1737110814421	4.5776367E-4	
1737110814422	-0.009994507	
1737110814423	-0.007171631	
1737110814424	3.8146973E-4	
1737110814425	2.2888184E-4	
1737110814426	4.5776367E-4	
1737110814427	0.002822876	
1737110814428	-0.0022888184	
1737110814429	-0.002746582	
1737110814430	0.0021362305	
1737110814431	0.0022125244	
1737110814432	0.0034332275	
1737110814433	0.009841919	
1737110814434	0.0074768066	
1737110814435	0.0050354004	
1737110814436	0.009155273	
1737110814437	0.0010681152	
1737110814438	-0.005645752	
1737110814439	-0.008010864	
1737110814440	-0.0012207031	
1737110814441	0.009384155	
1737110814442	-0.0015258789	
1737110814443	-0.0060272217	
1737110814444	-0.00289917	
1737110814445	-0.0050354004	
1737110814446	-6.1035156E-4	
1737110814447	0.0015258789	
1737110814448	9.918213E-4	
1737110814449	-0.0063323975	
1737110814450	-0.010375977	
1737110814451	-0.006942749	
1737110814452	-0.004272461	
1737110814453	-0.0025939941	
1737110814454	-0.00289917	
1737110814455	-0.0010681152	
1737110814456	-0.001449585	
1737110814457	-0.0019836426	
1737110814458	-0.004425049	
1737110814459	-0.0022888184	
1737110814460	0.0025177002	
1737110814461	0.0038909912	
1737110814462	0.0104522705	
1737110814463	0.011672974	
1737110814464	0.0020599365	
1737110814465	6.1035156E-4	
1737110814466	-1.5258789E-4	
1737110814467	0.004043579	
1737110814468	0.012435913	
1737110814469	-0.0077819824	
1737110814470	-0.02494812	
1737110814471	-0.0038146973	
1737110814472	0.019683838	
1737110814473	0.0064086914	
1737110814474	-0.013046265	
1737110814475	-9.918213E-4	
1737110814476	0.008163452	
1737110814477	-0.0020599365	
1737110814478	0.0022125244	
1737110814479	0.010910034	
1737110814480	0.0063323975	
1737110814481	9.1552734E-4	
1737110814482	9.1552734E-4	
1737110814483	0.002746582	
1737110814484	7.6293945E-5	
1737110814485	6.1035156E-4	
1737110814486	-1.5258789E-4	
1737110814487	3.0517578E-4	
1737110814488	0.0032806396	
1737110814489	-0.0022888184	
1737110814490	-0.001373291	
1737110814491	-3.8146973E-4	
1737110814492	-0.0032043457	
1737110814493	-0.0010681152	
1737110814494	-0.0010681152	
1737110814495	-2.2888184E-4	
1737110814496	1.5258789E-4	
1737110814497	-0.0074768066	
1737110814498	-0.0077056885	
1737110814499	-0.0075531006	
1737110814500	-0.007019043	
1737110814501	0.0032806396	
1737110814502	0.003967285	
1737110814503	9.1552734E-4	
1737110814504	-5.340576E-4	
1737110814505	-0.0031280518	
1737110814506	0.004043579	
1737110814507	-4.5776367E-4	
1737110814508	-0.009460449	
1737110814509	-0.0036621094	
1737110814510	-4.5776367E-4	
1737110814511	0.0035858154	
1737110814512	3.0517578E-4	
1737110814513	-3.0517578E-4	
1737110814514	0.005874634	
1737110814515	-0.00289917	
1737110814516	-0.0035095215	
1737110814517	0.0016784668	
1737110814518	-0.004043579	
1737110814519	-0.004119873	
1737110814520	0.0047302246	
1737110814521	0.0090789795	
1737110814522	0.0064849854	
1737110814523	0.0064849854	
1737110814524	-0.004348755	
1737110814525	-0.008850098	
1737110814526	0.006942749	
1737110814527	0.0049591064	
1737110814528	-0.0019073486	
1737110814529	0.008544922	
1737110814530	0.014190674	
1737110814531	0.0025177002	
1737110814532	-0.00541687	
1737110814533	4.5776367E-4	
1737110814534	-0.0019073486	
1737110814535	-0.004119873	
1737110814536	-0.00289917	
1737110814537	-0.0012969971	
1737110814538	0.004196167	
1737110814539	0.0011444092	
1737110814540	0.0045776367	
1737110814541	0.0064849854	
1737110814542	5.340576E-4	
1737110814543	0.0050354004	
1737110814544	0.0050354004	
1737110814545	9.1552734E-4	
1737110814546	-0.004119873	
1737110814547	-0.012893677	
1737110814548	-0.005493164	
1737110814549	-0.0016784668	
1737110814550	-0.007858276	
1737110814551	-0.007095337	
1737110814552	-0.008544922	
1737110814553	-0.00831604	
1737110814554	-0.0051879883	
1737110814555	-0.0025939941	
1737110814556	-0.0022125244	
1737110814557	-0.0037384033	
1737110814558	8.392334E-4	
1737110814559	0.0035858154	
1737110814560	0.0030517578	
1737110814561	0.0015258789	
1737110814562	-0.0032043457	
1737110814563	-0.0019836426	
1737110814564	0.0020599365	
1737110814565	0.01121521	
1737110814566	0.030822754	
1737110814567	0.04737854	
1737110814568	0.0289917	
1737110814569	-0.0032043457	
1737110814570	9.1552734E-4	
1737110814571	-0.0048065186	
1737110814572	-0.05645752	
1737110814573	-0.07598877	
1737110814574	-0.04966736	
1737110814575	-0.029373169	
1737110814576	2.2888184E-4	
1737110814577	0.016174316	
1737110814578	0.009307861	
1737110814579	0.022659302	
1737110814580	0.027313232	
1737110814581	0.02204895	
1737110814582	0.021591187	
1737110814583	0.016174316	
1737110814584	0.016479492	
1737110814585	0.013580322	
1737110814586	0.016021729	
1737110814587	0.017471313	
1737110814588	0.01083374	
1737110814589	0.009765625	
1737110814590	-0.0022125244	
1737110814591	-0.015106201	
1737110814592	-0.013809204	
1737110814593	-0.012054443	
1737110814594	-0.008773804	
1737110814595	-0.0074768066	
1737110814596	-0.009994507	
1737110814597	-0.0066375732	
1737110814598	-0.004272461	
1737110814599	-0.0045776367	
1737110814600	-0.006942749	
1737110814601	-0.006790161	
1737110814602	-0.0022888184	
1737110814603	-0.0020599365	
1737110814604	-0.0035858154	
1737110814605	-0.004425049	
1737110814606	-0.004043579	
1737110814607	-0.0064086914	
1737110814608	-0.0038146973	
1737110814609	-0.0021362305	
1737110814610	-0.0061798096	
1737110814611	-0.004196167	
1737110814612	-0.002822876	
1737110814613	0.0031280518	
1737110814614	0.010681152	
1737110814615	0.0033569336	
1737110814616	-0.0016784668	
1737110814617	0.001373291	
1737110814618	0.004501343	
1737110814619	0.010681152	
1737110814620	0.010528564	
1737110814621	0.0061035156	
1737110814622	0.009002686	
1737110814623	0.009841919	
1737110814624	0.004119873	
1737110814625	0.0025177002	
1737110814626	-0.0020599365	
1737110814627	-0.0018310547	
1737110814628	0.0046539307	
1737110814629	0.0015258789	
1737110814630	0.0038909912	
1737110814631	0.0033569336	
1737110814632	-0.0048065186	
1737110814633	-6.866455E-4	
1737110814634	-3.0517578E-4	
1737110814635	-0.0029754639	
1737110814636	6.866455E-4	
1737110814637	-9.1552734E-4	
1737110814638	-0.004348755	
1737110814639	-0.005264282	
1737110814640	-0.0020599365	
1737110814641	-0.0073242188	
1737110814642	-0.013580322	
1737110814643	-0.004425049	
1737110814644	0.00289917	
1737110814645	6.1035156E-4	
1737110814646	-0.006713867	
1737110814647	-0.006866455	
1737110814648	9.1552734E-4	
1737110814649	2.2888184E-4	
1737110814650	0.0021362305	
1737110814651	0.0064849854	
1737110814652	0.0049591064	
1737110814653	0.0022888184	
1737110814654	-0.0063323975	
1737110814655	-0.0031280518	
1737110814656	0.005722046	
1737110814657	-0.004501343	
1737110814658	-0.004501343	
1737110814659	0.005264282	
1737110814660	0.0061798096	
1737110814661	0.0030517578	
1737110814662	0.0022125244	
1737110814663	0.0061798096	
1737110814664	0.0048828125	
1737110814665	0.0047302246	
1737110814666	0.0010681152	
1737110814667	-0.0034332275	
1737110814668	0.0024414062	
1737110814669	-2.2888184E-4	
1737110814670	-0.0011444092	
1737110814671	-0.0012969971	
1737110814672	-0.004272461	
1737110814673	3.8146973E-4	
1737110814674	-0.005340576	
1737110814675	0.0020599365	
1737110814676	0.002822876	
1737110814677	-0.004425049	
1737110814678	0.008239746	
1737110814679	-7.6293945E-4	
1737110814680	-0.010681152	
1737110814681	-0.004425049	
1737110814682	0.0019073486	
1737110814683	0.008087158	
1737110814684	0.0077819824	
1737110814685	2.2888184E-4	
1737110814686	-0.015640259	
1737110814687	-0.016403198	
1737110814688	-0.0077056885	
1737110814689	-0.0025939941	
1737110814690	0.0024414062	
1737110814691	-0.002822876	
1737110814692	0.003967285	
1737110814693	0.011367798	
1737110814694	0.005340576	
1737110814695	0.0074005127	
1737110814696	0.004272461	
1737110814697	5.340576E-4	
1737110814698	0.007095337	
1737110814699	0.004119873	
1737110814700	-0.0046539307	
1737110814701	-0.005493164	
1737110814702	-0.009689331	
1737110814703	-0.0062561035	
1737110814704	0.0077819824	
1737110814705	0.0018310547	
1737110814706	-0.0015258789	
1737110814707	0.0032043457	
1737110814708	-0.001373291	
1737110814709	0.0022888184	
1737110814710	0.004425049	
1737110814711	7.6293945E-4	
1737110814712	0.002746582	
1737110814713	0.005493164	
1737110814714	0.007019043	
1737110814715	0.015411377	
1737110814716	0.014266968	
1737110814717	-0.0035095215	
1737110814718	-0.01876831	
1737110814719	-0.03211975	
1737110814720	-0.00793457	
1737110814721	0.017700195	
1737110814722	-0.0018310547	
1737110814723	0.011520386	
1737110814724	0.010528564	
1737110814725	-0.03677368	
1737110814726	-0.027618408	
1737110814727	0.009536743	
1737110814728	0.019683838	
1737110814729	0.016403198	
1737110814730	0.0090789795	
1737110814731	0.0051116943	
1737110814732	0.0048065186	
1737110814733	0.004348755	
1737110814734	-0.0016021729	
1737110814735	-0.009384155	
1737110814736	-0.023727417	
1737110814737	-0.040664673	
1737110814738	-0.019302368	
1737110814739	0.013961792	
1737110814740	0.007019043	
1737110814741	1.5258789E-4	
1737110814742	0.0074005127	
1737110814743	0.017242432	
1737110814744	0.034484863	
1737110814745	0.019454956	
1737110814746	-0.024337769	
1737110814747	-0.01739502	
1737110814748	0.024642944	
1737110814749	7.6293945E-4	
1737110814750	-0.034866333	
1737110814751	-0.015640259	
1737110814752	7.6293945E-4	
1737110814753	0.008239746	
1737110814754	0.013961792	
1737110814755	0.007858276	
1737110814756	0.004043579	
1737110814757	-0.0022888184	
1737110814758	-0.0051116943	
1737110814759	9.918213E-4	
1737110814760	0.0061798096	
1737110814761	0.009155273	
1737110814762	0.0048065186	
1737110814763	0.0029754639	
1737110814764	0.002822876	
1737110814765	-4.5776367E-4	
1737110814766	0.0011444092	
1737110814767	9.918213E-4	
1737110814768	-0.0022125244	
1737110814769	-4.5776367E-4	
1737110814770	-0.0012969971	
1737110814771	-0.0030517578	
1737110814772	0.0015258789	
1737110814773	0.0037384033	
1737110814774	7.6293945E-4	
1737110814775	-0.0061798096	
1737110814776	-0.011291504	
1737110814777	-0.009307861	
1737110814778	-0.005264282	
1737110814779	-6.1035156E-4	
1737110814780	-7.6293945E-5	
1737110814781	-0.0022125244	
1737110814782	0.0011444092	
1737110814783	0.0032806396	
1737110814784	-0.0012969971	
1737110814785	-0.0061798096	
1737110814786	-0.0032043457	
1737110814787	0.0032806396	
1737110814788	0.0048065186	
1737110814789	0.005645752	
1737110814790	-0.0022888184	
1737110814791	-0.01335144	
1737110814792	-0.0019836426	
1737110814793	0.015106201	
1737110814794	0.004348755	
1737110814795	-0.00289917	
1737110814796	0.0031280518	
1737110814797	-0.0022888184	
1737110814798	0.001449585	
1737110814799	0.0018310547	
1737110814800	-0.0065612793	
1737110814801	-6.1035156E-4	
1737110814802	0.004043579	
1737110814803	0.002822876	
1737110814804	0.0048828125	
1737110814805	0.0037384033	
1737110814806	6.1035156E-4	
1737110814807	0.0010681152	
1737110814808	-7.6293945E-4	
1737110814809	-7.6293945E-5	
1737110814810	0.0016021729	
1737110814811	-0.0022125244	
1737110814812	-0.0034332275	
1737110814813	-0.0023651123	
1737110814814	-6.1035156E-4	
1737110814815	-0.00289917	
1737110814816	-0.0035095215	
1737110814817	-1.5258789E-4	
1737110814818	0.0035095215	
1737110814819	0.012512207	
1737110814820	0.009231567	
1737110814821	8.392334E-4	
1737110814822	-0.0017547607	
1737110814823	-0.0077056885	
1737110814824	-0.0061798096	
1737110814825	-0.0031280518	
1737110814826	-0.0018310547	
1737110814827	-0.002670288	
1737110814828	-0.005569458	
1737110814829	0.006866455	
1737110814830	0.022354126	
1737110814831	0.016784668	
1737110814832	0.01777649	
1737110814833	0.044784546	
1737110814834	0.03555298	
1737110814835	-0.024871826	
1737110814836	-0.03944397	
1737110814837	-0.007247925	
1737110814838	-0.050811768	
1737110814839	-0.09567261	
1737110814840	-0.021591187	
1737110814841	0.050048828	
1737110814842	0.033340454	
1737110814843	-0.028305054	
1737110814844	-0.030288696	
1737110814845	-0.0063323975	
1737110814846	-0.018692017	
1737110814847	0.036849976	
1737110814848	0.04234314	
1737110814849	-0.026931763	
1737110814850	-0.029678345	
1737110814851	-0.03303528	
1737110814852	-0.00831604	
1737110814853	0.035247803	
1737110814854	0.026931763	
1737110814855	0.011138916	
1737110814856	-0.0045776367	
1737110814857	-0.008850098	
1737110814858	0.014801025	
1737110814859	0.036087036	
1737110814860	0.033721924	
1737110814861	0.02784729	
1737110814862	0.021591187	
1737110814863	0.01701355	
1737110814864	0.01121521	
1737110814865	0.0016021729	
1737110814866	0.00541687	
1737110814867	0.005569458	
1737110814868	0.0033569336	
1737110814869	0.0018310547	
1737110814870	-0.008010864	
1737110814871	-0.007171631	
1737110814872	-0.0047302246	
1737110814873	-0.012741089	
1737110814874	-0.007171631	
1737110814875	-0.008544922	
1737110814876	-0.023651123	
1737110814877	-0.017318726	
1737110814878	-0.010604858	
1737110814879	-0.018920898	
1737110814880	-0.018310547	
1737110814881	-0.01449585	
1737110814882	-0.010147095	
1737110814883	0.010223389	
1737110814884	0.018997192	
1737110814885	0.006942749	
1737110814886	0.018005371	
1737110814887	0.025939941	
1737110814888	-0.02708435	
1737110814889	-0.078811646	
1737110814890	-0.051956177	
1737110814891	0.012130737	
1737110814892	0.01663208	
1737110814893	-0.01701355	
1737110814894	-0.009994507	
1737110814895	0.01373291	
1737110814896	0.04096985	
1737110814897	0.06362915	
1737110814898	0.07392883	
1737110814899	0.050582886	
1737110814900	-0.0390625	
1737110814901	-0.042419434	
1737110814902	0.05027771	
1737110814903	-0.015258789	
1737110814904	-0.12580872	
1737110814905	-0.103759766	
1737110814906	-0.057525635	
1737110814907	-0.007247925	
1737110814908	0.009994507	
1737110814909	0.0046539307	
1737110814910	0.03425598	
1737110814911	0.031814575	
1737110814912	0.044708252	
1737110814913	0.067596436	
1737110814914	0.029754639	
1737110814915	0.02861023	
1737110814916	0.052261353	
1737110814917	0.0365448	
1737110814918	0.031814575	
1737110814919	0.023498535	
1737110814920	-3.8146973E-4	
1737110814921	0.0059509277	
1737110814922	0.026168823	
1737110814923	-0.007095337	
1737110814924	-0.052642822	
1737110814925	-0.025100708	
1737110814926	0.048217773	
1737110814927	0.056610107	
1737110814928	-0.020141602	
1737110814929	-0.08117676	
1737110814930	-0.08125305	
1737110814931	-0.015640259	
1737110814932	0.038604736	
1737110814933	0.001449585	
1737110814934	-0.050964355	
1737110814935	-0.09788513	
1737110814936	-0.09529114	
1737110814937	-0.025482178	
1737110814938	-0.013427734	
1737110814939	-0.0045776367	
1737110814940	0.025177002	
1737110814941	0.011367798	
1737110814942	0.014266968	
1737110814943	0.02281189	
1737110814944	0.021896362	
1737110814945	0.02609253	
1737110814946	0.017700195	
1737110814947	0.02319336	
1737110814948	0.047912598	
1737110814949	0.042266846	
1737110814950	-0.0037384033	
1737110814951	-0.01953125	
1737110814952	-0.005493164	
1737110814953	0.0	
1737110814954	0.021591187	
1737110814955	0.04096985	
1737110814956	-0.0020599365	
1737110814957	-0.047683716	
1737110814958	-0.048217773	
1737110814959	-0.02166748	
1737110814960	0.063323975	
1737110814961	0.077438354	
1737110814962	0.047454834	
1737110814963	0.050048828	
1737110814964	-0.08003235	
1737110814965	-0.16716003	
1737110814966	-0.033569336	
1737110814967	0.06362915	
1737110814968	0.032730103	
1737110814969	0.03211975	
1737110814970	0.053024292	
1737110814971	0.020904541	
1737110814972	-0.020065308	
1737110814973	-0.04890442	
1737110814974	-0.075683594	
1737110814975	-0.060043335	
1737110814976	-0.020217896	
1737110814977	0.013961792	
1737110814978	0.014190674	
1737110814979	-0.018463135	
1737110814980	-0.0132751465	
1737110814981	0.016708374	
1737110814982	0.025100708	
1737110814983	0.039978027	
1737110814984	0.075531006	
1737110814985	0.09429932	
1737110814986	0.077056885	
1737110814987	0.019302368	
1737110814988	-0.03555298	
1737110814989	-0.027236938	
1737110814990	-0.02067566	
1737110814991	-0.050964355	
1737110814992	-0.05897522	
1737110814993	-0.051345825	
1737110814994	-0.052490234	
1737110814995	-0.05722046	
1737110814996	-0.025177002	
1737110814997	0.0050354004	
1737110814998	9.1552734E-4	
1737110814999	0.026931763	
1737110815000	0.022583008	
1737110815001	0.0045776367	
1737110815002	0.011291504	
1737110815003	0.014343262	
1737110815004	0.040359497	
1737110815005	0.03364563	
1737110815006	0.013122559	
1737110815007	-0.02746582	
1737110815008	-0.05455017	
1737110815009	-0.005340576	
1737110815010	-0.0048828125	
1737110815011	0.0118255615	
1737110815012	0.035858154	
1737110815013	0.0076293945	
1737110815014	0.01739502	
1737110815015	0.009613037	
1737110815016	0.024642944	
1737110815017	0.04058838	
1737110815018	0.00541687	
1737110815019	0.012359619	
1737110815020	0.011291504	
1737110815021	-0.0016784668	
1737110815022	-0.0063323975	
1737110815023	-0.023651123	
1737110815024	-0.017318726	
1737110815025	-0.013122559	
1737110815026	-0.015335083	
1737110815027	-0.0074768066	
1737110815028	-0.008468628	
1737110815029	-0.009765625	
1737110815030	-0.0034332275	
1737110815031	-4.5776367E-4	
1737110815032	-0.004272461	
1737110815033	-0.0048828125	
1737110815034	0.0038909912	
1737110815035	0.0050354004	
1737110815036	-0.00541687	
1737110815037	-0.008239746	
1737110815038	-0.010070801	
1737110815039	-0.0048828125	
1737110815040	0.004196167	
1737110815041	-0.0090789795	
1737110815042	-0.012969971	
1737110815043	-0.011672974	
1737110815044	-0.018081665	
1737110815045	0.025787354	
1737110815046	0.050430298	
1737110815047	0.025177002	
1737110815048	0.015411377	
1737110815049	-2.2888184E-4	
1737110815050	-0.0061035156	
1737110815051	-0.045394897	
1737110815052	-0.07286072	
1737110815053	-8.392334E-4	
1737110815054	0.017471313	
1737110815055	-0.028839111	
1737110815056	-0.04348755	
1737110815057	-0.025024414	
1737110815058	0.0132751465	
1737110815059	0.029907227	
1737110815060	0.06492615	
1737110815061	0.0756073	
1737110815062	0.04043579	
1737110815063	0.03135681	
1737110815064	0.008010864	
1737110815065	0.0036621094	
1737110815066	0.003967285	
1737110815067	-0.012130737	
1737110815068	0.002746582	
1737110815069	-0.010986328	
1737110815070	-0.024414062	
1737110815071	-0.008392334	
1737110815072	-0.00289917	
1737110815073	0.016860962	
1737110815074	0.02319336	
1737110815075	0.0034332275	
1737110815076	-0.015258789	
1737110815077	-0.047531128	
1737110815078	-0.077819824	
1737110815079	-0.05783081	
1737110815080	-0.007247925	
1737110815081	0.012893677	
1737110815082	-6.1035156E-4	
1737110815083	-0.0035095215	
1737110815084	0.011291504	
1737110815085	0.025482178	
1737110815086	0.04837036	
1737110815087	0.041275024	
1737110815088	0.021057129	
1737110815089	0.016098022	
1737110815090	-0.02571106	
1737110815091	-0.039520264	
1737110815092	-0.012359619	
1737110815093	-0.030670166	
1737110815094	-0.04547119	
1737110815095	0.013580322	
1737110815096	0.0491333	
1737110815097	0.0025177002	
1737110815098	0.009994507	
1737110815099	0.030136108	
1737110815100	-0.016860962	
1737110815101	-0.013580322	
1737110815102	0.005645752	
1737110815103	0.008773804	
1737110815104	0.019607544	
1737110815105	0.008010864	
1737110815106	0.0036621094	
1737110815107	3.8146973E-4	
1737110815108	-0.012969971	
1737110815109	-0.007858276	
1737110815110	0.010528564	
1737110815111	0.007019043	
1737110815112	-0.009155273	
1737110815113	-0.005340576	
1737110815114	-0.005264282	
1737110815115	-0.008010864	
1737110815116	-0.0031280518	
1737110815117	0.0064849854	
1737110815118	0.021057129	
1737110815119	0.020980835	
1737110815120	0.010528564	
1737110815121	-0.00541687	
1737110815122	-0.024490356	
1737110815123	-0.029449463	
1737110815124	-0.0051879883	
1737110815125	0.0035858154	
1737110815126	-0.0146484375	
1737110815127	-0.009155273	
1737110815128	-0.0064849854	
1737110815129	-0.010757446	
1737110815130	-0.00579834	
1737110815131	-0.001449585	
1737110815132	0.004501343	
1737110815133	0.0024414062	
1737110815134	-3.8146973E-4	
1737110815135	0.0025177002	
1737110815136	0.01739502	
1737110815137	0.020446777	
1737110815138	-0.012588501	
1737110815139	-0.03364563	
1737110815140	-0.005722046	
1737110815141	0.028076172	
1737110815142	0.0062561035	
1737110815143	-0.009689331	
1737110815144	0.022506714	
1737110815145	0.032424927	
1737110815146	0.027008057	
1737110815147	0.026931763	
1737110815148	0.013046265	
1737110815149	0.008239746	
1737110815150	0.016403198	
1737110815151	-0.022583008	
1737110815152	-0.10231018	
1737110815153	-0.10070801	
1737110815154	-0.0031280518	
1737110815155	0.028915405	
1737110815156	0.0036621094	
1737110815157	0.015945435	
1737110815158	0.024642944	
1737110815159	0.046539307	
1737110815160	0.04699707	
1737110815161	0.005874634	
1737110815162	0.0023651123	
1737110815163	-0.012893677	
1737110815164	-0.029830933	
1737110815165	0.0020599365	
1737110815166	0.0075531006	
1737110815167	0.0012207031	
1737110815168	2.2888184E-4	
1737110815169	-0.03326416	
1737110815170	-0.06210327	
1737110815171	-0.031585693	
1737110815172	0.04837036	
1737110815173	0.035705566	
1737110815174	-0.026245117	
1737110815175	-0.0033569336	
1737110815176	-0.015640259	
1737110815177	-0.038223267	
1737110815178	0.012588501	
1737110815179	0.04425049	
1737110815180	0.044021606	
1737110815181	0.05241394	
1737110815182	0.037612915	
1737110815183	-0.0090789795	
1737110815184	-0.004425049	
1737110815185	0.014266968	
1737110815186	0.011520386	
1737110815187	0.011749268	
1737110815188	-0.01701355	
1737110815189	-0.032958984	
1737110815190	-0.044937134	
1737110815191	-0.046691895	
1737110815192	3.0517578E-4	
1737110815193	0.0034332275	
1737110815194	-0.022735596	
1737110815195	-7.6293945E-5	
1737110815196	0.012435913	
1737110815197	-0.0032806396	
1737110815198	0.001373291	
1737110815199	0.024719238	
1737110815200	0.06439209	
1737110815201	0.10505676	
1737110815202	0.112838745	
1737110815203	0.024032593	
1737110815204	-0.12794495	
1737110815205	-0.24971008	
1737110815206	-0.27366638	
1737110815207	-0.018005371	
1737110815208	0.14282227	
1737110815209	-0.008850098	
1737110815210	-0.022659302	
1737110815211	0.00289917	
1737110815212	0.03463745	
1737110815213	0.08354187	
1737110815214	0.023880005	
1737110815215	0.010375977	
1737110815216	0.010986328	
1737110815217	0.040359497	
1737110815218	0.056915283	
1737110815219	0.012283325	
1737110815220	0.017547607	
1737110815221	0.030441284	
1737110815222	0.050201416	
1737110815223	0.050582886	
1737110815224	0.006866455	
1737110815225	0.008087158	
1737110815226	0.01625061	
1737110815227	0.027160645	
1737110815228	0.05607605	
1737110815229	0.01914978	
1737110815230	-0.054779053	
1737110815231	-0.11924744	
1737110815232	-0.11619568	
1737110815233	-0.019683838	
1737110815234	0.013427734	
1737110815235	-0.010299683	
1737110815236	-0.023117065	
1737110815237	-0.07698059	
1737110815238	-0.050582886	
1737110815239	0.013656616	
1737110815240	0.0066375732	
1737110815241	0.02670288	
1737110815242	0.044631958	
1737110815243	0.059890747	
1737110815244	0.055160522	
1737110815245	0.009155273	
1737110815246	-0.016860962	
1737110815247	-0.08415222	
1737110815248	-0.09933472	
1737110815249	-0.023651123	
1737110815250	-0.0012207031	
1737110815251	0.012664795	
1737110815252	0.032043457	
1737110815253	0.029296875	
1737110815254	0.030822754	
1737110815255	0.022354126	
1737110815256	0.021591187	
1737110815257	0.027389526	
1737110815258	0.02166748	
1737110815259	0.008392334	
1737110815260	0.0077056885	
1737110815261	0.0090789795	
1737110815262	-4.5776367E-4	
1737110815263	0.0035095215	
1737110815264	0.0061798096	
1737110815265	-0.0012207031	
1737110815266	0.0049591064	
1737110815267	0.0064086914	
1737110815268	-0.0019836426	
1737110815269	-0.010147095	
1737110815270	-0.019836426	
1737110815271	-0.018005371	
1737110815272	-0.008926392	
1737110815273	-0.0031280518	
1737110815274	0.005645752	
1737110815275	9.1552734E-4	
1737110815276	-0.018157959	
1737110815277	-0.010910034	
1737110815278	0.0031280518	
1737110815279	-0.005569458	
1737110815280	-0.011367798	
1737110815281	-0.017089844	
1737110815282	-0.010910034	
1737110815283	0.008544922	
1737110815284	0.011444092	
1737110815285	0.008163452	
1737110815286	-0.0059509277	
1737110815287	-0.00579834	
1737110815288	0.008621216	
1737110815289	-0.0032043457	
1737110815290	0.004043579	
1737110815291	0.014801025	
1737110815292	0.0019073486	
1737110815293	0.015792847	
1737110815294	0.023117065	
1737110815295	-0.0064086914	
1737110815296	-0.03364563	
1737110815297	-0.02708435	
1737110815298	0.01701355	
1737110815299	0.013198853	
1737110815300	-0.008850098	
1737110815301	0.014572144	
1737110815302	0.020370483	
1737110815303	0.015258789	
1737110815304	0.006713867	
1737110815305	-0.0035095215	
1737110815306	-0.0038909912	
1737110815307	-0.001449585	
1737110815308	0.029754639	
1737110815309	0.07949829	
1737110815310	0.122909546	
1737110815311	0.107803345	
1737110815312	0.067596436	
1737110815313	-0.0982666	
1737110815314	-0.34629822	
1737110815315	-0.21568298	
1737110815316	0.0090789795	
1737110815317	-0.06439209	
1737110815318	-0.051193237	
1737110815319	-0.019836426	
1737110815320	-0.08483887	
1737110815321	-0.06248474	
1737110815322	0.024719238	
1737110815323	0.09239197	
1737110815324	0.07911682	
1737110815325	0.07766724	
1737110815326	0.080718994	
1737110815327	0.06278992	
1737110815328	0.08255005	
1737110815329	0.08621216	
1737110815330	0.0844574	
1737110815331	0.08491516	
1737110815332	0.078430176	
1737110815333	0.07759094	
1737110815334	0.055389404	
1737110815335	-0.0064086914	
1737110815336	-0.08277893	
1737110815337	-0.1386261	
1737110815338	-0.09849548	
1737110815339	0.054016113	
1737110815340	0.08918762	
1737110815341	-0.03883362	
1737110815342	-0.13076782	
1737110815343	-0.12756348	
1737110815344	-0.114593506	
1737110815345	-0.09902954	
1737110815346	-0.04486084	
1737110815347	-0.069885254	
1737110815348	0.002746582	
1737110815349	0.11833191	
1737110815350	0.039596558	
1737110815351	0.082473755	
1737110815352	0.09651184	
1737110815353	-0.015487671	
1737110815354	-0.0016021729	
1737110815355	0.0024414062	
1737110815356	-0.023269653	
1737110815357	-0.005569458	
1737110815358	0.032196045	
1737110815359	0.02998352	
1737110815360	-0.012283325	
1737110815361	-0.012359619	
1737110815362	0.0025177002	
1737110815363	0.009307861	
1737110815364	0.0032043457	
1737110815365	0.0017547607	
1737110815366	0.014724731	
1737110815367	0.008621216	
1737110815368	2.2888184E-4	
1737110815369	-0.0016784668	
1737110815370	0.0021362305	
1737110815371	0.002822876	
1737110815372	0.005340576	
1737110815373	0.021209717	
1737110815374	0.005645752	
1737110815375	-0.020370483	
1737110815376	-0.009765625	
1737110815377	0.009841919	
1737110815378	0.009765625	
1737110815379	-0.009002686	
1737110815380	-0.029220581	
1737110815381	-0.03227234	
1737110815382	-0.014038086	
1737110815383	0.006942749	
1737110815384	0.0018310547	
1737110815385	0.0018310547	
1737110815386	0.008010864	
1737110815387	-0.00869751	
1737110815388	-0.023727417	
1737110815389	-0.013198853	
1737110815390	0.0048065186	
1737110815391	0.0064086914	
1737110815392	-0.004043579	
1737110815393	-0.004425049	
1737110815394	0.014877319	
1737110815395	0.02319336	
1737110815396	0.004196167	
1737110815397	-0.023269653	
1737110815398	-0.036087036	
1737110815399	0.0077819824	
1737110815400	0.04737854	
1737110815401	0.0061035156	
1737110815402	-0.04135132	
1737110815403	-0.04333496	
1737110815404	8.392334E-4	
1737110815405	0.037841797	
1737110815406	0.038604736	
1737110815407	0.048065186	
1737110815408	0.038986206	
1737110815409	0.008850098	
1737110815410	-0.0048065186	
1737110815411	9.1552734E-4	
1737110815412	0.0048828125	
1737110815413	-0.0051116943	
1737110815414	0.0066375732	
1737110815415	0.014190674	
1737110815416	7.6293945E-4	
1737110815417	-0.018463135	
1737110815418	-0.04425049	
1737110815419	-0.022506714	
1737110815420	0.029830933	
1737110815421	0.015106201	
1737110815422	-0.011138916	
1737110815423	-0.005493164	
1737110815424	-0.018615723	
1737110815425	-0.0075531006	
1737110815426	0.019378662	
1737110815427	0.018310547	
1737110815428	-0.021896362	
1737110815429	-0.06896973	
1737110815430	-0.004119873	
1737110815431	0.05203247	
1737110815432	-0.026321411	
1737110815433	-0.049057007	
1737110815434	-0.03189087	
1737110815435	-0.0050354004	
1737110815436	0.063934326	
1737110815437	0.021972656	
1737110815438	-0.014266968	
1737110815439	0.022277832	
1737110815440	0.026016235	
1737110815441	0.03387451	
1737110815442	0.034332275	
1737110815443	0.0025939941	
1737110815444	-0.06462097	
1737110815445	-0.062408447	
1737110815446	-0.026321411	
1737110815447	-0.02861023	
1737110815448	0.09811401	
1737110815449	0.19630432	
1737110815450	0.13076782	
1737110815451	0.030212402	
1737110815452	-0.10757446	
1737110815453	-0.13626099	
1737110815454	-0.16990662	
1737110815455	-0.21621704	
1737110815456	0.036315918	
1737110815457	0.14129639	
1737110815458	-0.0024414062	
1737110815459	-0.08354187	
1737110815460	-0.14221191	
1737110815461	0.007247925	
1737110815462	0.19699097	
1737110815463	0.1386261	
1737110815464	0.04623413	
1737110815465	-0.07324219	
1737110815466	-0.2268219	
1737110815467	-0.11734009	
1737110815468	0.08720398	
1737110815469	0.05088806	
1737110815470	0.018844604	
1737110815471	0.060958862	
1737110815472	0.047912598	
1737110815473	0.06515503	
1737110815474	0.07476807	
1737110815475	0.064086914	
1737110815476	0.08743286	
1737110815477	0.08956909	
1737110815478	0.0605011	
1737110815479	0.052261353	
1737110815480	0.017700195	
1737110815481	-0.06317139	
1737110815482	-0.088272095	
1737110815483	-0.034179688	
1737110815484	0.018234253	
1737110815485	-0.02571106	
1737110815486	-0.05783081	
1737110815487	0.023956299	
1737110815488	0.018463135	
1737110815489	-0.03677368	
1737110815490	-0.027313232	
1737110815491	-0.032806396	
1737110815492	-0.03112793	
1737110815493	-0.027618408	
1737110815494	-0.06378174	
1737110815495	-0.12245178	
1737110815496	-0.09742737	
1737110815497	-0.008010864	
1737110815498	-0.020141602	
1737110815499	-0.018310547	
1737110815500	0.017318726	
1737110815501	0.0029754639	
1737110815502	0.015640259	
1737110815503	0.03326416	
1737110815504	0.03883362	
1737110815505	0.032577515	
1737110815506	0.02571106	
1737110815507	0.06362915	
1737110815508	0.077056885	
1737110815509	0.020980835	
1737110815510	-0.024490356	
1737110815511	-0.014953613	
1737110815512	0.034866333	
1737110815513	0.06324768	
1737110815514	0.04600525	
1737110815515	2.2888184E-4	
1737110815516	-0.043029785	
1737110815517	-0.05065918	
1737110815518	-0.06454468	
1737110815519	-0.030517578	
1737110815520	-0.037765503	
1737110815521	-0.06858826	
1737110815522	-0.019226074	
1737110815523	-0.005722046	
1737110815524	0.032577515	
1737110815525	0.0030517578	
1737110815526	-0.07598877	
1737110815527	0.023117065	
1737110815528	0.28320312	
1737110815529	0.50460815	
1737110815530	0.4183197	
1737110815531	0.094070435	
1737110815532	-0.31059265	
1737110815533	-0.4285431	
1737110815534	-0.18463135	
1737110815535	-0.2004242	
1737110815536	-0.20820618	
1737110815537	-0.14251709	
1737110815538	-0.21179199	
1737110815539	-0.117263794	
1737110815540	-0.11810303	
1737110815541	-0.12237549	
1737110815542	0.026779175	
1737110815543	0.047302246	
1737110815544	0.09086609	
1737110815545	0.13702393	
1737110815546	0.14389038	
1737110815547	0.2103424	
1737110815548	0.20019531	
1737110815549	0.16326904	
1737110815550	0.17166138	
1737110815551	0.1650238	
1737110815552	0.1525116	
1737110815553	0.09086609	
1737110815554	0.0038909912	
1737110815555	-0.01914978	
1737110815556	0.03189087	
1737110815557	0.04699707	
1737110815558	-0.011444092	
1737110815559	-0.01411438	
1737110815560	-0.0491333	
1737110815561	-0.12008667	
1737110815562	-0.113983154	
1737110815563	-0.10772705	
1737110815564	-0.093688965	
1737110815565	-0.075531006	
1737110815566	-0.0868988	
1737110815567	-0.094070435	
1737110815568	-0.08872986	
1737110815569	-0.07446289	
1737110815570	-0.05897522	
1737110815571	-0.04989624	
1737110815572	-0.036239624	
1737110815573	-0.0074768066	
1737110815574	0.015411377	
1737110815575	0.03227234	
1737110815576	0.05126953	
1737110815577	0.032958984	
1737110815578	-0.015945435	
1737110815579	-0.054397583	
1737110815580	-0.04043579	
1737110815581	0.055999756	
1737110815582	0.08293152	
1737110815583	0.001373291	
1737110815584	0.0048828125	
1737110815585	0.14595032	
1737110815586	0.21690369	
1737110815587	0.10749817	
1737110815588	-0.029907227	
1737110815589	-0.17356873	
1737110815590	-0.24665833	
1737110815591	-0.08605957	
1737110815592	0.08979797	
1737110815593	0.0743103	
1737110815594	0.006790161	
1737110815595	0.041427612	
1737110815596	0.031585693	
1737110815597	8.392334E-4	
1737110815598	0.05142212	
1737110815599	0.082855225	
1737110815600	0.19668579	
1737110815601	0.14602661	
1737110815602	0.01914978	
1737110815603	0.075683594	
1737110815604	-0.07247925	
1737110815605	-0.23750305	
1737110815606	-0.22567749	
1737110815607	-0.19691467	
1737110815608	-0.12359619	
1737110815609	-0.10345459	
1737110815610	-0.09109497	
1737110815611	-0.061645508	
1737110815612	-0.07034302	
1737110815613	0.03753662	
1737110815614	0.1927948	
1737110815615	0.19042969	
1737110815616	0.16693115	
1737110815617	0.12565613	
1737110815618	0.074157715	
1737110815619	0.10643005	
1737110815620	0.07484436	
1737110815621	0.053710938	
1737110815622	0.056533813	
1737110815623	-5.340576E-4	
1737110815624	0.01701355	
1737110815625	0.06843567	
1737110815626	0.009536743	
1737110815627	-0.107421875	
1737110815628	-0.15411377	
1737110815629	-0.11642456	
1737110815630	-0.039520264	
1737110815631	-0.035324097	
1737110815632	-0.08049011	
1737110815633	-0.035629272	
1737110815634	-0.02532959	
1737110815635	-0.046081543	
1737110815636	-0.029525757	
1737110815637	-0.06576538	
1737110815638	-0.0831604	
1737110815639	-0.050582886	
1737110815640	-0.010375977	
1737110815641	0.065460205	
1737110815642	0.12588501	
1737110815643	0.10643005	
1737110815644	0.026016235	
1737110815645	-0.007095337	
1737110815646	0.0718689	
1737110815647	0.023040771	
1737110815648	-0.09567261	
1737110815649	-0.0769043	
1737110815650	-0.039138794	
1737110815651	-0.0047302246	
1737110815652	-0.0076293945	
1737110815653	0.0016021729	
1737110815654	0.06851196	
1737110815655	0.07713318	
1737110815656	0.059509277	
1737110815657	0.07026672	
1737110815658	0.039978027	
1737110815659	-0.047302246	
1737110815660	0.028915405	
1737110815661	0.11009216	
1737110815662	0.00289917	
1737110815663	-0.041885376	
1737110815664	-0.0970459	
1737110815665	-0.24375916	
1737110815666	-0.23406982	
1737110815667	-0.075302124	
1737110815668	0.06011963	
1737110815669	0.14274597	
1737110815670	0.18257141	
1737110815671	0.116500854	
1737110815672	0.029907227	
1737110815673	0.025405884	
1737110815674	0.015640259	
1737110815675	0.015945435	
1737110815676	0.012741089	
1737110815677	-0.0037384033	
1737110815678	-0.0051879883	
1737110815679	-0.012512207	
1737110815680	-0.0032043457	
1737110815681	-0.009002686	
1737110815682	-0.023880005	
1737110815683	-0.010986328	
1737110815684	-0.015945435	
1737110815685	-0.013809204	
1737110815686	-0.0049591064	
1737110815687	-0.014038086	
1737110815688	-0.026473999	
1737110815689	-0.027923584	
1737110815690	-0.02357483	
1737110815691	-0.023040771	
1737110815692	-0.010986328	
1737110815693	-0.004119873	
1737110815694	0.0146484375	
1737110815695	0.059280396	
1737110815696	0.072250366	
1737110815697	0.02204895	
1737110815698	-0.05317688	
1737110815699	-0.0819397	
1737110815700	-0.012817383	
1737110815701	0.080947876	
1737110815702	0.01777649	
1737110815703	-0.10795593	
1737110815704	-0.07614136	
1737110815705	0.00793457	
1737110815706	0.025177002	
1737110815707	0.030975342	
1737110815708	0.02571106	
1737110815709	0.018157959	
1737110815710	0.012969971	
1737110815711	0.004196167	
1737110815712	0.0119018555	
1737110815713	0.021209717	
1737110815714	0.017318726	
1737110815715	0.017471313	
1737110815716	0.008621216	
1737110815717	-0.0075531006	
1737110815718	0.0020599365	
1737110815719	0.007095337	
1737110815720	0.0019073486	
1737110815721	0.00579834	
1737110815722	0.0077056885	
1737110815723	0.0065612793	
1737110815724	-0.0019073486	
1737110815725	-1.5258789E-4	
1737110815726	0.0146484375	
1737110815727	0.005722046	
1737110815728	-0.019607544	
1737110815729	-0.028381348	
1737110815730	-0.036621094	
1737110815731	-0.02609253	
1737110815732	-0.0075531006	
1737110815733	-0.011520386	
1737110815734	-0.018463135	
1737110815735	-0.007171631	
1737110815736	0.012588501	
1737110815737	0.019683838	
1737110815738	0.0030517578	
1737110815739	-0.011444092	
1737110815740	0.004501343	
1737110815741	0.008850098	
1737110815742	0.0032806396	
1737110815743	0.0066375732	
1737110815744	0.006942749	
1737110815745	0.012588501	
1737110815746	0.015716553	
1737110815747	0.009002686	
1737110815748	0.0051879883	
1737110815749	0.0012207031	
1737110815750	-0.0061035156	
1737110815751	-0.004043579	
1737110815752	-0.0010681152	
1737110815753	-0.0022125244	
1737110815754	-0.004196167	
1737110815755	-0.008544922	
1737110815756	-0.0061035156	
1737110815757	0.002822876	
1737110815758	0.004501343	
1737110815759	0.0048065186	
1737110815760	0.0064849854	
1737110815761	0.00579834	
1737110815762	0.002670288	
1737110815763	0.0037384033	
1737110815764	0.0034332275	
1737110815765	1.5258789E-4	
1737110815766	0.0029754639	
1737110815767	0.0033569336	
1737110815768	0.0023651123	
1737110815769	-0.0034332275	
1737110815770	-3.0517578E-4	
1737110815771	0.001449585	
1737110815772	-0.020065308	
1737110815773	-0.008468628	
1737110815774	0.004425049	
1737110815775	-7.6293945E-4	
1737110815776	-0.003967285	
1737110815777	6.1035156E-4	
1737110815778	0.0024414062	
1737110815779	0.0023651123	
1737110815780	-0.0066375732	
1737110815781	-0.009918213	
1737110815782	-0.0035095215	
1737110815783	-0.0025939941	
1737110815784	-0.00869751	
1737110815785	-7.6293945E-5	
1737110815786	0.0051116943	
1737110815787	7.6293945E-4	
1737110815788	-0.0062561035	
1737110815789	-0.0064849854	
1737110815790	0.010757446	
1737110815791	0.007095337	
1737110815792	-0.0045776367	
1737110815793	0.0064849854	
1737110815794	0.004196167	
1737110815795	0.0032806396	
1737110815796	0.012741089	
1737110815797	0.010910034	
1737110815798	0.0119018555	
1737110815799	-0.011520386	
1737110815800	-0.009765625	
1737110815801	0.01411438	
1737110815802	-0.010604858	
1737110815803	-0.0074768066	
1737110815804	0.0035858154	
1737110815805	0.0012969971	
1737110815806	-0.0073242188	
1737110815807	-0.017166138	
1737110815808	0.0046539307	
1737110815809	0.0023651123	
1737110815810	-0.0045776367	
1737110815811	0.0037384033	
1737110815812	0.0024414062	
1737110815813	0.017547607	
1737110815814	0.012054443	
1737110815815	0.007019043	
1737110815816	0.01121521	
1737110815817	0.004501343	
1737110815818	0.010299683	
1737110815819	0.012359619	
1737110815820	0.012817383	
1737110815821	0.0060272217	
1737110815822	1.5258789E-4	
1737110815823	-0.004501343	
1737110815824	-0.008621216	
1737110815825	-0.002670288	
1737110815826	-0.0016784668	
1737110815827	-0.00289917	
1737110815828	-0.0022888184	
1737110815829	0.004501343	
1737110815830	-0.004425049	
1737110815831	-0.023345947	
1737110815832	-0.0132751465	
1737110815833	-0.0046539307	
1737110815834	-0.016708374	
1737110815835	-0.008926392	
1737110815836	-0.002670288	
1737110815837	-0.007019043	
1737110815838	-0.012893677	
1737110815839	-0.0036621094	
1737110815840	-0.0012207031	
1737110815841	-0.0060272217	
1737110815842	-0.005569458	
1737110815843	-0.0059509277	
1737110815844	-0.0017547607	
1737110815845	0.0037384033	
1737110815846	0.026168823	
1737110815847	0.040664673	
1737110815848	0.025787354	
1737110815849	-0.0015258789	
1737110815850	-0.034332275	
1737110815851	-0.026321411	
1737110815852	-0.022659302	
1737110815853	-0.043640137	
1737110815854	-0.010070801	
1737110815855	0.020217896	
1737110815856	0.0030517578	
1737110815857	0.017471313	
1737110815858	0.033493042	
1737110815859	0.029830933	
1737110815860	0.029754639	
1737110815861	0.016860962	
1737110815862	0.019302368	
1737110815863	0.026779175	
1737110815864	0.020751953	
1737110815865	0.009002686	
1737110815866	0.0038146973	
1737110815867	-0.0051116943	
1737110815868	-0.029144287	
1737110815869	-0.025177002	
1737110815870	-0.01411438	
1737110815871	-0.018081665	
1737110815872	-0.018310547	
1737110815873	-0.031661987	
1737110815874	-0.029830933	
1737110815875	-0.011749268	
1737110815876	-0.010147095	
1737110815877	-0.009002686	
1737110815878	3.8146973E-4	
1737110815879	0.009994507	
1737110815880	0.005340576	
1737110815881	0.0025939941	
1737110815882	0.0064086914	
1737110815883	0.018692017	
1737110815884	0.026016235	
1737110815885	0.023269653	
1737110815886	0.027236938	
1737110815887	0.032043457	
1737110815888	0.03036499	
1737110815889	0.021743774	
1737110815890	0.02998352	
1737110815891	0.028457642	
1737110815892	-0.010070801	
1737110815893	-0.037231445	
1737110815894	-0.02418518	
1737110815895	0.0035095215	
1737110815896	0.028381348	
1737110815897	0.037841797	
1737110815898	0.026931763	
1737110815899	0.0023651123	
1737110815900	-0.052337646	
1737110815901	-0.102005005	
1737110815902	-0.08232117	
1737110815903	-0.05783081	
1737110815904	-0.058746338	
1737110815905	-0.037841797	
1737110815906	-0.029144287	
1737110815907	-0.047683716	
1737110815908	-0.040512085	
1737110815909	-0.017166138	
1737110815910	-0.0012969971	
1737110815911	0.010223389	
1737110815912	0.018844604	
1737110815913	0.03677368	
1737110815914	0.050582886	
1737110815915	0.04447937	
1737110815916	0.037231445	
1737110815917	0.040893555	
1737110815918	0.037994385	
1737110815919	0.021743774	
1737110815920	0.03479004	
1737110815921	0.07644653	
1737110815922	0.09124756	
1737110815923	0.06538391	
1737110815924	0.033111572	
1737110815925	0.025863647	
1737110815926	0.005340576	
1737110815927	-0.025405884	
1737110815928	-0.032043457	
1737110815929	-0.0415802	
1737110815930	-0.021972656	
1737110815931	0.012588501	
1737110815932	0.013656616	
1737110815933	0.017318726	
1737110815934	-7.6293945E-5	
1737110815935	-0.07858276	
1737110815936	-0.123672485	
1737110815937	-0.052261353	
1737110815938	0.01335144	
1737110815939	0.00541687	
1737110815940	0.012207031	
1737110815941	0.0038909912	
1737110815942	-0.0019073486	
1737110815943	0.002670288	
1737110815944	-0.012359619	
1737110815945	-0.010986328	
1737110815946	-0.020599365	
1737110815947	-0.022201538	
1737110815948	-0.014724731	
1737110815949	-0.05493164	
1737110815950	-0.07041931	
1737110815951	0.0061798096	
1737110815952	0.0554657	
1737110815953	0.033950806	
1737110815954	0.044631958	
1737110815955	0.0038909912	
1737110815956	-0.07392883	
1737110815957	-0.058059692	
1737110815958	-0.0050354004	
1737110815959	0.026016235	
1737110815960	0.031051636	
1737110815961	0.040512085	
1737110815962	0.037460327	
1737110815963	0.015258789	
1737110815964	-0.00579834	
1737110815965	-0.017166138	
1737110815966	0.012207031	
1737110815967	0.043792725	
1737110815968	0.051574707	
1737110815969	0.010910034	
1737110815970	-0.025863647	
1737110815971	0.015182495	
1737110815972	0.06416321	
1737110815973	0.09307861	
1737110815974	0.078048706	
1737110815975	0.053710938	
1737110815976	0.0718689	
1737110815977	0.02494812	
1737110815978	-0.06317139	
1737110815979	-0.060958862	
1737110815980	-0.03189087	
1737110815981	-0.022888184	
1737110815982	-1.5258789E-4	
1737110815983	-0.0104522705	
1737110815984	-0.029144287	
1737110815985	-0.022659302	
1737110815986	-0.008926392	
1737110815987	-0.025100708	
1737110815988	-0.1399231	
1737110815989	-0.16708374	
1737110815990	-0.08804321	
1737110815991	-0.06324768	
1737110815992	-0.04600525	
1737110815993	-0.0693512	
1737110815994	-0.07865906	
1737110815995	-0.033721924	
1737110815996	0.009841919	
1737110815997	0.062561035	
1737110815998	0.034866333	
1737110815999	0.021591187	
1737110816000	0.08972168	
1737110816001	0.13191223	
1737110816002	0.12374878	
1737110816003	0.08987427	
1737110816004	0.0756073	
1737110816005	0.01449585	
1737110816006	-0.076293945	
1737110816007	-0.031433105	
1737110816008	0.03364563	
1737110816009	0.045700073	
1737110816010	0.06362915	
1737110816011	0.038375854	
1737110816012	0.019302368	
1737110816013	0.008087158	
1737110816014	-0.027694702	
1737110816015	-0.048980713	
1737110816016	-0.09681702	
1737110816017	-0.1750946	
1737110816018	-0.11230469	
1737110816019	0.030670166	
1737110816020	0.027618408	
1737110816021	0.045776367	
1737110816022	0.095062256	
1737110816023	0.09529114	
1737110816024	0.107421875	
1737110816025	0.08506775	
1737110816026	0.09094238	
1737110816027	0.09689331	
1737110816028	0.043563843	
1737110816029	0.026397705	
1737110816030	0.0060272217	
1737110816031	-0.0118255615	
1737110816032	0.03227234	
1737110816033	-0.0315094	
1737110816034	-0.15663147	
1737110816035	-0.16952515	
1737110816036	-0.15609741	
1737110816037	-0.09651184	
1737110816038	-0.08552551	
1737110816039	-0.12176514	
1737110816040	-0.057296753	
1737110816041	-0.043640137	
1737110816042	-0.0011444092	
1737110816043	0.047225952	
1737110816044	0.016708374	
1737110816045	0.066833496	
1737110816046	0.034332275	
1737110816047	-0.019073486	
1737110816048	0.040740967	
1737110816049	0.046463013	
1737110816050	0.039215088	
1737110816051	0.06523132	
1737110816052	0.075149536	
1737110816053	0.08354187	
1737110816054	0.06149292	
1737110816055	-0.0038909912	
1737110816056	-0.021820068	
1737110816057	-0.0050354004	
1737110816058	-0.037994385	
1737110816059	-0.065078735	
1737110816060	-9.918213E-4	
1737110816061	0.05821228	
1737110816062	0.029830933	
1737110816063	0.021057129	
1737110816064	0.032577515	
1737110816065	0.02784729	
1737110816066	0.02204895	
1737110816067	0.028381348	
1737110816068	0.04386902	
1737110816069	0.012359619	
1737110816070	-0.030136108	
1737110816071	-0.027008057	
1737110816072	-0.013656616	
1737110816073	-0.022659302	
1737110816074	-0.02960205	
1737110816075	-0.04333496	
1737110816076	-0.08483887	
1737110816077	-0.117874146	
1737110816078	-0.12680054	
1737110816079	-0.15190125	
1737110816080	-0.13343811	
1737110816081	-0.064315796	
1737110816082	-0.021514893	
1737110816083	0.0050354004	
1737110816084	0.021133423	
1737110816085	0.024108887	
1737110816086	0.039367676	
1737110816087	0.058517456	
1737110816088	0.05706787	
1737110816089	0.06591797	
1737110816090	0.055847168	
1737110816091	0.02281189	
1737110816092	0.021972656	
1737110816093	0.04425049	
1737110816094	0.07537842	
1737110816095	0.09109497	
1737110816096	0.08377075	
1737110816097	0.056991577	
1737110816098	0.05958557	
1737110816099	0.04966736	
1737110816100	0.01663208	
1737110816101	0.006866455	
1737110816102	-0.020446777	
1737110816103	-0.02532959	
1737110816104	-0.017547607	
1737110816105	-0.02067566	
1737110816106	-0.023117065	
1737110816107	-0.036010742	
1737110816108	-0.04524231	
1737110816109	-0.034332275	
1737110816110	0.010070801	
1737110816111	0.044174194	
1737110816112	0.04310608	
1737110816113	0.029754639	
1737110816114	0.013809204	
1737110816115	0.00541687	
1737110816116	-0.008468628	
1737110816117	-0.011138916	
1737110816118	0.012359619	
1737110816119	0.010757446	
1737110816120	-0.006713867	
1737110816121	-0.009536743	
1737110816122	-0.0090789795	
1737110816123	-0.010910034	
1737110816124	-0.01625061	
1737110816125	-0.022888184	
1737110816126	-0.038375854	
1737110816127	-0.041046143	
1737110816128	-0.020980835	
1737110816129	-0.0023651123	
1737110816130	-0.019073486	
1737110816131	-0.05203247	
1737110816132	-0.046691895	
1737110816133	-0.035324097	
1737110816134	-0.03829956	
1737110816135	-0.036849976	
1737110816136	-0.034713745	
1737110816137	-0.017242432	
1737110816138	-0.0046539307	
1737110816139	-0.011291504	
1737110816140	-0.009307861	
1737110816141	-0.0036621094	
1737110816142	0.0046539307	
1737110816143	0.004348755	
1737110816144	0.008850098	
1737110816145	0.015945435	
1737110816146	0.009689331	
1737110816147	0.023727417	
1737110816148	0.03845215	
1737110816149	0.03845215	
1737110816150	0.042495728	
1737110816151	0.052108765	
1737110816152	0.054779053	
1737110816153	0.07148743	
1737110816154	0.083999634	
1737110816155	0.05630493	
1737110816156	0.03982544	
1737110816157	0.032958984	
1737110816158	0.0038146973	
1737110816159	-0.034942627	
1737110816160	-0.05493164	
1737110816161	-0.033493042	
1737110816162	-0.004425049	
1737110816163	0.002822876	
1737110816164	-0.014572144	
1737110816165	-0.026473999	
1737110816166	-0.015487671	
1737110816167	-0.031051636	
1737110816168	-0.057754517	
1737110816169	-0.0491333	
1737110816170	-0.024261475	
1737110816171	-0.015792847	
1737110816172	-0.025482178	
1737110816173	-0.019607544	
1737110816174	0.0045776367	
1737110816175	-0.009155273	
1737110816176	-0.014419556	
1737110816177	0.0023651123	
1737110816178	-0.0015258789	
1737110816179	4.5776367E-4	
1737110816180	-0.005340576	
1737110816181	0.009231567	
1737110816182	9.1552734E-4	
1737110816183	-0.06881714	
1737110816184	-0.047531128	
1737110816185	-0.012435913	
1737110816186	-0.03112793	
1737110816187	-0.0050354004	
1737110816188	0.04196167	
1737110816189	0.051574707	
1737110816190	0.047607422	
1737110816191	0.046310425	
1737110816192	0.023040771	
1737110816193	0.011672974	
1737110816194	0.011444092	
1737110816195	0.012817383	
1737110816196	0.03555298	
1737110816197	0.037612915	
1737110816198	0.031051636	
1737110816199	0.02708435	
1737110816200	-6.1035156E-4	
1737110816201	-0.013656616	
1737110816202	0.005569458	
1737110816203	0.028762817	
1737110816204	0.02243042	
1737110816205	0.0035858154	
1737110816206	-5.340576E-4	
1737110816207	-0.008621216	
1737110816208	0.00289917	
1737110816209	0.021057129	
1737110816210	0.018157959	
1737110816211	0.020599365	
1737110816212	0.0019073486	
1737110816213	-0.0047302246	
1737110816214	0.0038146973	
1737110816215	-0.008850098	
1737110816216	-0.013504028	
1737110816217	-0.020523071	
1737110816218	-0.027389526	
1737110816219	-0.022506714	
1737110816220	-0.016937256	
1737110816221	-0.015411377	
1737110816222	-0.022354126	
1737110816223	-0.026550293	
1737110816224	-0.02746582	
1737110816225	-0.03929138	
1737110816226	-0.015258789	
1737110816227	0.01335144	
1737110816228	0.005493164	
1737110816229	-0.0075531006	
1737110816230	-0.026016235	
1737110816231	-0.060958862	
1737110816232	-0.04676819	
1737110816233	0.017547607	
1737110816234	0.02861023	
1737110816235	0.017242432	
1737110816236	-0.014801025	
1737110816237	-0.07980347	
1737110816238	-0.032806396	
1737110816239	0.04852295	
1737110816240	0.04058838	
1737110816241	0.024261475	
1737110816242	-0.008926392	
1737110816243	-0.055618286	
1737110816244	-0.02960205	
1737110816245	0.019683838	
1737110816246	0.01914978	
1737110816247	0.010910034	
1737110816248	0.027618408	
1737110816249	0.041046143	
1737110816250	0.046081543	
1737110816251	0.043563843	
1737110816252	0.013580322	
1737110816253	0.009613037	
1737110816254	0.051879883	
1737110816255	0.037384033	
1737110816256	0.0032806396	
1737110816257	0.0050354004	
1737110816258	0.015029907	
1737110816259	0.011444092	
1737110816260	-2.2888184E-4	
1737110816261	0.010070801	
1737110816262	0.0049591064	
1737110816263	-9.918213E-4	
1737110816264	0.008926392	
1737110816265	-0.009613037	
1737110816266	-0.02456665	
1737110816267	-0.0023651123	
1737110816268	0.009155273	
1737110816269	-0.018692017	
1737110816270	-0.028839111	
1737110816271	-0.028915405	
1737110816272	-0.050354004	
1737110816273	-0.05218506	
1737110816274	-0.030288696	
1737110816275	-0.01373291	
1737110816276	-0.008010864	
1737110816277	0.002746582	
1737110816278	0.008163452	
1737110816279	0.0011444092	
1737110816280	0.012969971	
1737110816281	0.037612915	
1737110816282	0.020828247	
1737110816283	-7.6293945E-5	
1737110816284	-0.0019073486	
1737110816285	-0.005264282	
1737110816286	0.021743774	
1737110816287	0.037765503	
1737110816288	0.03868103	
1737110816289	0.045394897	
1737110816290	0.025024414	
1737110816291	-0.010910034	
1737110816292	-0.043792725	
1737110816293	-0.07041931	
1737110816294	-0.08842468	
1737110816295	-0.06599426	
1737110816296	-0.0024414062	
1737110816297	0.041427612	
1737110816298	0.027694702	
1737110816299	-0.02960205	
1737110816300	-0.10597229	
1737110816301	-0.124435425	
1737110816302	-0.034103394	
1737110816303	0.05607605	
1737110816304	0.09803772	
1737110816305	0.069122314	
1737110816306	0.013198853	
1737110816307	0.024490356	
1737110816308	-6.866455E-4	
1737110816309	0.00831604	
1737110816310	0.086135864	
1737110816311	0.044708252	
1737110816312	0.007171631	
1737110816313	0.01663208	
1737110816314	-0.025787354	
1737110816315	-0.046920776	
1737110816316	-0.07759094	
1737110816317	-0.0868988	
1737110816318	-0.055618286	
1737110816319	0.009765625	
1737110816320	0.10475159	
1737110816321	0.062942505	
1737110816322	-0.0077056885	
1737110816323	-0.03479004	
1737110816324	-0.056152344	
1737110816325	0.033340454	
1737110816326	0.10406494	
1737110816327	0.12786865	
1737110816328	0.16166687	
1737110816329	0.11512756	
1737110816330	0.05744934	
1737110816331	0.049057007	
1737110816332	0.014038086	
1737110816333	0.0059509277	
1737110816334	0.00793457	
1737110816335	-0.033340454	
1737110816336	-0.05126953	
1737110816337	-0.06263733	
1737110816338	-0.09918213	
1737110816339	-0.063705444	
1737110816340	-0.03791809	
1737110816341	-0.053482056	
1737110816342	-0.0063323975	
1737110816343	-0.024871826	
1737110816344	-0.1146698	
1737110816345	-0.15205383	
1737110816346	-0.13412476	
1737110816347	-0.04951477	
1737110816348	-0.08018494	
1737110816349	-0.12557983	
1737110816350	0.0021362305	
1737110816351	0.043029785	
1737110816352	-0.022964478	
1737110816353	-0.05340576	
1737110816354	-0.0019073486	
1737110816355	0.075302124	
1737110816356	0.09284973	
1737110816357	0.0655365	
1737110816358	0.014343262	
1737110816359	0.03944397	
1737110816360	0.062408447	
1737110816361	0.06599426	
1737110816362	0.10467529	
1737110816363	0.07598877	
1737110816364	0.0592041	
1737110816365	0.051498413	
1737110816366	0.040740967	
1737110816367	-0.017852783	
1737110816368	-0.1158905	
1737110816369	0.01335144	
1737110816370	0.07270813	
1737110816371	-0.03463745	
1737110816372	0.030822754	
1737110816373	0.099487305	
1737110816374	0.11619568	
1737110816375	0.1550293	
1737110816376	0.14442444	
1737110816377	0.07423401	
1737110816378	-0.023727417	
1737110816379	-0.053024292	
1737110816380	-0.034942627	
1737110816381	0.011672974	
1737110816382	0.023422241	
1737110816383	0.002822876	
1737110816384	0.06500244	
1737110816385	-0.01335144	
1737110816386	-0.23918152	
1737110816387	-0.2747345	
1737110816388	-0.16700745	
1737110816389	-0.17295837	
1737110816390	-0.24993896	
1737110816391	-0.18501282	
1737110816392	0.005340576	
1737110816393	0.033798218	
1737110816394	-0.033340454	
1737110816395	-0.021057129	
1737110816396	0.0062561035	
1737110816397	0.011062622	
1737110816398	-0.012969971	
1737110816399	0.0024414062	
1737110816400	0.055236816	
1737110816401	0.065841675	
1737110816402	0.087890625	
1737110816403	0.120010376	
1737110816404	0.09048462	
1737110816405	0.03189087	
1737110816406	-0.01777649	
1737110816407	-0.04676819	
1737110816408	-0.03517151	
1737110816409	0.025177002	
1737110816410	0.005874634	
1737110816411	-0.004348755	
1737110816412	0.042114258	
1737110816413	0.044326782	
1737110816414	0.048599243	
1737110816415	0.07133484	
1737110816416	0.076293945	
1737110816417	0.073013306	
1737110816418	0.053329468	
1737110816419	0.028381348	
1737110816420	0.015792847	
1737110816421	0.02998352	
1737110816422	0.03211975	
1737110816423	0.039978027	
1737110816424	0.028076172	
1737110816425	-0.0021362305	
1737110816426	-0.031814575	
1737110816427	-0.03845215	
1737110816428	-0.020065308	
1737110816429	-0.027542114	
1737110816430	-0.023117065	
1737110816431	-0.033721924	
1737110816432	-0.064697266	
1737110816433	-0.05531311	
1737110816434	-0.04119873	
1737110816435	-0.036087036	
1737110816436	-0.032577515	
1737110816437	-0.024795532	
1737110816438	-0.029907227	
1737110816439	-0.05760193	
1737110816440	-0.06896973	
1737110816441	-0.041656494	
1737110816442	-0.020065308	
1737110816443	0.010070801	
1737110816444	0.007095337	
1737110816445	0.011520386	
1737110816446	0.08262634	
1737110816447	0.10154724	
1737110816448	0.092163086	
1737110816449	0.1235199	
1737110816450	0.14938354	
1737110816451	0.13496399	
1737110816452	0.10131836	
1737110816453	0.08079529	
1737110816454	0.0730896	
1737110816455	0.05683899	
1737110816456	0.014724731	
1737110816457	-0.019683838	
1737110816458	-0.04043579	
1737110816459	-0.06088257	
1737110816460	-0.08453369	
1737110816461	-0.09918213	
1737110816462	-0.10696411	
1737110816463	-0.12031555	
1737110816464	-0.11695862	
1737110816465	-0.14434814	
1737110816466	-0.1499939	
1737110816467	-0.13343811	
1737110816468	-0.14030457	
1737110816469	-0.12283325	
1737110816470	-0.102386475	
1737110816471	-0.11878967	
1737110816472	-0.09628296	
1737110816473	-0.015716553	
1737110816474	0.015029907	
1737110816475	0.016784668	
1737110816476	0.026473999	
1737110816477	0.037078857	
1737110816478	0.075912476	
1737110816479	0.09033203	
1737110816480	0.0831604	
1737110816481	0.08415222	
1737110816482	0.0844574	
1737110816483	0.09391785	
1737110816484	0.10536194	
1737110816485	0.09719849	
1737110816486	0.0945282	
1737110816487	0.09880066	
1737110816488	0.094833374	
1737110816489	0.09361267	
1737110816490	0.07041931	
1737110816491	0.07133484	
1737110816492	0.06958008	
1737110816493	0.033569336	
1737110816494	0.02746582	
1737110816495	0.026245117	
1737110816496	0.009689331	
1737110816497	0.01335144	
1737110816498	-0.01083374	
1737110816499	-0.03463745	
1737110816500	-0.021972656	
1737110816501	-0.02670288	
1737110816502	-0.054092407	
1737110816503	-0.06904602	
1737110816504	-0.056991577	
1737110816505	-0.051651	
1737110816506	-0.060043335	
1737110816507	-0.058898926	
1737110816508	-0.08407593	
1737110816509	-0.095214844	
1737110816510	-0.060195923	
1737110816511	0.051574707	
1737110816512	0.16479492	
1737110816513	0.119018555	
1737110816514	-0.038375854	
1737110816515	-0.27641296	
1737110816516	-0.419693	
1737110816517	-0.15861511	
1737110816518	0.17234802	
1737110816519	0.26741028	
1737110816520	0.32440186	
1737110816521	0.2079773	
1737110816522	-0.085372925	
1737110816523	-0.2685547	
1737110816524	-0.2960968	
1737110816525	-0.33180237	
1737110816526	-0.32066345	
1737110816527	-0.10322571	
1737110816528	0.08552551	
1737110816529	0.08476257	
1737110816530	0.024490356	
1737110816531	7.6293945E-5	
1737110816532	0.12557983	
1737110816533	0.3100586	
1737110816534	0.33416748	
1737110816535	0.2545166	
1737110816536	0.17692566	
1737110816537	0.1084137	
1737110816538	0.054016113	
1737110816539	0.02357483	
1737110816540	0.051116943	
1737110816541	0.100097656	
1737110816542	0.10253906	
1737110816543	0.015411377	
1737110816544	-0.09284973	
1737110816545	-0.17211914	
1737110816546	-0.21636963	
1737110816547	-0.11810303	
1737110816548	-0.009689331	
1737110816549	0.0049591064	
1737110816550	0.0365448	
1737110816551	0.013885498	
1737110816552	-0.020904541	
1737110816553	-0.062561035	
1737110816554	-0.16204834	
1737110816555	-0.20957947	
1737110816556	-0.15388489	
1737110816557	-0.021743774	
1737110816558	0.038528442	
1737110816559	0.031967163	
1737110816560	0.012893677	
1737110816561	-0.019683838	
1737110816562	0.020828247	
1737110816563	0.04524231	
1737110816564	0.05378723	
1737110816565	0.15541077	
1737110816566	0.22232056	
1737110816567	0.17875671	
1737110816568	0.11520386	
1737110816569	0.08140564	
1737110816570	-0.0049591064	
1737110816571	-0.10635376	
1737110816572	-0.14556885	
1737110816573	-0.15205383	
1737110816574	-0.06324768	
1737110816575	-0.050125122	
1737110816576	-0.102767944	
1737110816577	-0.04875183	
1737110816578	-0.044708252	
1737110816579	-0.02281189	
1737110816580	0.035095215	
1737110816581	0.06072998	
1737110816582	0.1524353	
1737110816583	0.21606445	
1737110816584	0.08415222	
1737110816585	-0.16914368	
1737110816586	-0.3148651	
1737110816587	-0.28503418	
1737110816588	-0.18310547	
1737110816589	-0.0680542	
1737110816590	0.041809082	
1737110816591	0.050735474	
1737110816592	0.05821228	
1737110816593	0.07926941	
1737110816594	0.0592041	
1737110816595	0.076293945	
1737110816596	0.07446289	
1737110816597	0.06614685	
1737110816598	0.06744385	
1737110816599	0.054092407	
1737110816600	0.06454468	
1737110816601	0.06416321	
1737110816602	0.06011963	
1737110816603	0.05065918	
1737110816604	0.065841675	
1737110816605	0.1625824	
1737110816606	0.23590088	
1737110816607	0.2179718	
1737110816608	0.1701355	
1737110816609	0.08598328	
1737110816610	-0.15777588	
1737110816611	-0.38612366	
1737110816612	-0.3400421	
1737110816613	-0.31082153	
1737110816614	-0.35346985	
1737110816615	-0.18699646	
1737110816616	-0.017318726	
1737110816617	0.07385254	
1737110816618	0.13511658	
1737110816619	0.09307861	
1737110816620	0.12145996	
1737110816621	0.1083374	
1737110816622	0.06607056	
1737110816623	0.10017395	
1737110816624	0.059814453	
1737110816625	0.03135681	
1737110816626	0.009002686	
1737110816627	-0.03135681	
1737110816628	-0.032730103	
1737110816629	-0.039749146	
1737110816630	-0.038604736	
1737110816631	-0.046691895	
1737110816632	-0.05531311	
1737110816633	-0.055007935	
1737110816634	-0.062561035	
1737110816635	-0.049743652	
1737110816636	-0.028305054	
1737110816637	-0.008773804	
1737110816638	-0.0061035156	
1737110816639	-0.017852783	
1737110816640	-0.014572144	
1737110816641	-0.001449585	
1737110816642	0.0066375732	
1737110816643	0.0059509277	
1737110816644	0.015716553	
1737110816645	0.02571106	
1737110816646	0.021591187	
1737110816647	0.033416748	
1737110816648	0.03967285	
1737110816649	0.04547119	
1737110816650	0.04951477	
1737110816651	0.038375854	
1737110816652	0.044326782	
1737110816653	0.025100708	
1737110816654	0.014190674	
1737110816655	0.049362183	
1737110816656	0.05241394	
1737110816657	0.04348755	
1737110816658	0.038986206	
1737110816659	0.026626587	
1737110816660	0.02067566	
1737110816661	0.010604858	
1737110816662	0.012054443	
1737110816663	0.0146484375	
1737110816664	0.0146484375	
1737110816665	0.01449585	
1737110816666	-0.005722046	
1737110816667	-0.019378662	
1737110816668	-0.029067993	
1737110816669	-0.030517578	
1737110816670	-0.02571106	
1737110816671	-0.0340271	
1737110816672	-0.048675537	
1737110816673	-0.06828308	
1737110816674	-0.061645508	
1737110816675	-0.046157837	
1737110816676	-0.04623413	
1737110816677	-0.037384033	
1737110816678	-0.033798218	
1737110816679	-0.031585693	
1737110816680	-0.034484863	
1737110816681	-0.039749146	
1737110816682	-0.022888184	
1737110816683	-0.014801025	
1737110816684	-0.017700195	
1737110816685	-0.010604858	
1737110816686	-1.5258789E-4	
1737110816687	0.0050354004	
1737110816688	0.012283325	
1737110816689	0.013046265	
1737110816690	0.009765625	
1737110816691	0.0390625	
1737110816692	0.06866455	
1737110816693	0.05531311	
1737110816694	-0.0016021729	
1737110816695	-0.08979797	
1737110816696	-0.07545471	
1737110816697	0.058135986	
1737110816698	0.067214966	
1737110816699	-0.030593872	
1737110816700	-0.056533813	
1737110816701	0.093688965	
1737110816702	0.3138733	
1737110816703	0.17791748	
1737110816704	-0.14724731	
1737110816705	-0.22964478	
1737110816706	-0.11238098	
1737110816707	0.015029907	
1737110816708	0.020523071	
1737110816709	-0.026931763	
1737110816710	-0.0064086914	
1737110816711	0.05104065	
1737110816712	0.06599426	
1737110816713	0.07026672	
1737110816714	0.07614136	
1737110816715	0.108795166	
1737110816716	0.14480591	
1737110816717	0.05706787	
1737110816718	-0.022506714	
1737110816719	-0.004501343	
1737110816720	-0.048217773	
1737110816721	-0.08049011	
1737110816722	-0.01914978	
1737110816723	-0.028915405	
1737110816724	-0.02670288	
1737110816725	-0.012283325	
1737110816726	-0.061798096	
1737110816727	-0.042037964	
1737110816728	-0.019454956	
1737110816729	-0.025787354	
1737110816730	-0.033798218	
1737110816731	-0.06958008	
1737110816732	-0.07041931	
1737110816733	-0.06210327	
1737110816734	-0.06607056	
1737110816735	-0.044174194	
1737110816736	-0.022201538	
1737110816737	-0.0019836426	
1737110816738	0.03929138	
1737110816739	0.064697266	
1737110816740	0.07270813	
1737110816741	0.07461548	
1737110816742	0.060195923	
1737110816743	-0.04798889	
1737110816744	-0.22529602	
1737110816745	-0.22209167	
1737110816746	-0.08354187	
1737110816747	0.012130737	
1737110816748	0.044708252	
1737110816749	0.058670044	
1737110816750	0.0932312	
1737110816751	0.11550903	
1737110816752	0.1235199	
1737110816753	0.089035034	
1737110816754	0.06599426	
1737110816755	0.08026123	
1737110816756	0.07217407	
1737110816757	0.05378723	
1737110816758	0.035476685	
1737110816759	0.03074646	
1737110816760	0.033950806	
1737110816761	0.030517578	
1737110816762	0.022201538	
1737110816763	-0.016021729	
1737110816764	-0.03189087	
1737110816765	-0.005264282	
1737110816766	-0.015182495	
1737110816767	-0.027694702	
1737110816768	-0.025253296	
1737110816769	-0.039596558	
1737110816770	-0.051498413	
1737110816771	-0.05630493	
1737110816772	-0.061035156	
1737110816773	-0.06484985	
1737110816774	-0.051956177	
1737110816775	-0.04547119	
1737110816776	-0.050811768	
1737110816777	-0.030288696	
1737110816778	-0.013122559	
1737110816779	-0.010604858	
1737110816780	0.0012969971	
1737110816781	0.002822876	
1737110816782	0.02357483	
1737110816783	0.066986084	
1737110816784	0.034866333	
1737110816785	-0.040512085	
1737110816786	-0.087890625	
1737110816787	-0.06248474	
1737110816788	0.031433105	
1737110816789	-0.0073242188	
1737110816790	-0.044708252	
1737110816791	0.12741089	
1737110816792	0.18714905	
1737110816793	0.06843567	
1737110816794	-0.010757446	
1737110816795	-0.08354187	
1737110816796	-0.1210022	
1737110816797	-0.08003235	
1737110816798	-0.027618408	
1737110816799	0.0062561035	
1737110816800	0.06317139	
1737110816801	0.18959045	
1737110816802	0.28274536	
1737110816803	0.26474	
1737110816804	0.15258789	
1737110816805	-0.1159668	
1737110816806	-0.32814026	
1737110816807	-0.3148651	
1737110816808	-0.182724	
1737110816809	-0.020446777	
1737110816810	-0.05706787	
1737110816811	-0.0390625	
1737110816812	0.07072449	
1737110816813	-0.006942749	
1737110816814	0.048599243	
1737110816815	0.09765625	
1737110816816	0.07369995	
1737110816817	0.07644653	
1737110816818	0.015335083	
1737110816819	0.060043335	
1737110816820	0.051727295	
1737110816821	0.0077056885	
1737110816822	0.019226074	
1737110816823	-0.024414062	
1737110816824	-0.026168823	
1737110816825	-0.011291504	
1737110816826	-0.008087158	
1737110816827	-0.0061798096	
1737110816828	-0.018463135	
1737110816829	-0.019836426	
1737110816830	-0.028305054	
1737110816831	-0.013198853	
1737110816832	-0.001373291	
1737110816833	-0.031967163	
1737110816834	-0.044326782	
1737110816835	-0.032424927	
1737110816836	-0.025558472	
1737110816837	-0.026245117	
1737110816838	-0.03074646	
1737110816839	-0.018539429	
1737110816840	0.008239746	
1737110816841	0.015716553	
1737110816842	0.007247925	
1737110816843	0.009231567	
1737110816844	0.017700195	
1737110816845	0.023269653	
1737110816846	0.030517578	
1737110816847	0.04058838	
1737110816848	0.02822876	
1737110816849	0.0051116943	
1737110816850	-0.002746582	
1737110816851	-0.009918213	
1737110816852	-0.0062561035	
1737110816853	0.014877319	
1737110816854	0.024490356	
1737110816855	0.02029419	
1737110816856	0.023117065	
1737110816857	0.027694702	
1737110816858	0.014953613	
1737110816859	-0.0012207031	
1737110816860	-0.0061798096	
1737110816861	-0.020141602	
1737110816862	-0.026779175	
1737110816863	-0.02067566	
1737110816864	-0.03768921	
1737110816865	-0.025863647	
1737110816866	-0.0036621094	
1737110816867	-0.00579834	
1737110816868	0.005722046	
1737110816869	0.020904541	
1737110816870	0.009384155	
1737110816871	-0.020217896	
1737110816872	-0.027770996	
1737110816873	-0.019454956	
1737110816874	-0.034179688	
1737110816875	-0.032577515	
1737110816876	0.0025177002	
1737110816877	0.005493164	
1737110816878	-0.012435913	
1737110816879	-0.009307861	
1737110816880	0.0050354004	
1737110816881	0.009384155	
1737110816882	0.0020599365	
1737110816883	0.019607544	
1737110816884	0.04310608	
1737110816885	0.03479004	
1737110816886	0.012512207	
1737110816887	0.011138916	
1737110816888	0.022583008	
1737110816889	0.018615723	
1737110816890	0.009536743	
1737110816891	0.016937256	
1737110816892	0.026321411	
1737110816893	0.028839111	
1737110816894	0.020446777	
1737110816895	0.017471313	
1737110816896	0.03173828	
1737110816897	0.02708435	
1737110816898	0.010681152	
1737110816899	-0.015487671	
1737110816900	-0.037841797	
1737110816901	-0.02822876	
1737110816902	-0.022964478	
1737110816903	-0.022506714	
1737110816904	-0.032958984	
1737110816905	-0.050582886	
1737110816906	-0.033187866	
1737110816907	-0.027618408	
1737110816908	-0.025558472	
1737110816909	-0.0074768066	
1737110816910	-0.00579834	
1737110816911	-0.0025939941	
1737110816912	0.0030517578	
1737110816913	0.007019043	
1737110816914	0.005493164	
1737110816915	0.0035095215	
1737110816916	0.00541687	
1737110816917	4.5776367E-4	
1737110816918	-0.006713867	
1737110816919	-0.0035858154	
1737110816920	-0.0033569336	
1737110816921	9.1552734E-4	
1737110816922	-0.0019836426	
1737110816923	-0.004501343	
1737110816924	0.004196167	
1737110816925	7.6293945E-4	
1737110816926	0.009765625	
1737110816927	0.0119018555	
1737110816928	0.010375977	
1737110816929	0.0035858154	
1737110816930	0.012130737	
1737110816931	0.027236938	
1737110816932	0.014038086	
1737110816933	-0.0018310547	
1737110816934	-0.008468628	
1737110816935	-0.00579834	
1737110816936	0.02067566	
1737110816937	0.04310608	
1737110816938	0.04989624	
1737110816939	0.012512207	
1737110816940	-0.037994385	
1737110816941	-0.01876831	
1737110816942	-0.012054443	
1737110816943	-0.0019836426	
1737110816944	0.02166748	
1737110816945	0.01838684	
1737110816946	0.028686523	
1737110816947	0.01449585	
1737110816948	-0.020523071	
1737110816949	-0.022583008	
1737110816950	-0.0059509277	
1737110816951	0.023651123	
1737110816952	0.029754639	
1737110816953	-0.031661987	
1737110816954	-0.11390686	
1737110816955	-0.10467529	
1737110816956	0.008773804	
1737110816957	0.023498535	
1737110816958	-0.024871826	
1737110816959	0.00869751	
1737110816960	0.024642944	
1737110816961	0.02708435	
1737110816962	0.06790161	
1737110816963	0.058288574	
1737110816964	-0.030212402	
1737110816965	-0.032958984	
1737110816966	0.055770874	
1737110816967	0.03929138	
1737110816968	-0.022888184	
1737110816969	-0.18035889	
1737110816970	-0.35614014	
1737110816971	-0.25871277	
1737110816972	0.03387451	
1737110816973	0.18585205	
1737110816974	0.15327454	
1737110816975	0.19104004	
1737110816976	0.15266418	
1737110816977	0.041885376	
1737110816978	0.029220581	
1737110816979	0.037841797	
1737110816980	0.13809204	
1737110816981	0.16197205	
1737110816982	0.0907135	
1737110816983	0.07400513	
1737110816984	-0.02861023	
1737110816985	-0.11154175	
1737110816986	-0.061416626	
1737110816987	-0.07148743	
1737110816988	-0.09902954	
1737110816989	-0.09605408	
1737110816990	-0.1171875	
1737110816991	-0.030899048	
1737110816992	-0.061798096	
1737110816993	-0.13061523	
1737110816994	-0.009689331	
1737110816995	0.01876831	
1737110816996	0.03425598	
1737110816997	0.052490234	
1737110816998	0.012969971	
1737110816999	0.037612915	
1737110817000	0.03555298	
1737110817001	0.03616333	
1737110817002	0.035324097	
1737110817003	0.02243042	
1737110817004	0.048599243	
1737110817005	0.03211975	
1737110817006	-0.014877319	
1737110817007	-0.01449585	
1737110817008	-0.03387451	
1737110817009	-0.041885376	
1737110817010	-0.014801025	
1737110817011	-0.019836426	
1737110817012	-0.026931763	
1737110817013	-0.017929077	
1737110817014	-0.012741089	
1737110817015	0.0010681152	
1737110817016	0.016860962	
1737110817017	0.022583008	
1737110817018	0.033416748	
1737110817019	0.04081726	
1737110817020	0.020828247	
1737110817021	-0.0019836426	
1737110817022	-0.010147095	
1737110817023	-0.0104522705	
1737110817024	-0.004272461	
1737110817025	0.002670288	
1737110817026	0.0010681152	
1737110817027	-0.0019836426	
1737110817028	-0.004425049	
1737110817029	-0.03791809	
1737110817030	-0.049057007	
1737110817031	0.0030517578	
1737110817032	0.023803711	
1737110817033	-0.0010681152	
1737110817034	-0.0024414062	
1737110817035	0.002746582	
1737110817036	0.002670288	
1737110817037	0.005340576	
1737110817038	0.015640259	
1737110817039	0.015640259	
1737110817040	0.01991272	
1737110817041	0.034484863	
1737110817042	0.04135132	
1737110817043	0.05882263	
1737110817044	0.02708435	
1737110817045	-9.1552734E-4	
1737110817046	-0.03250122	
1737110817047	-0.10673523	
1737110817048	-0.059661865	
1737110817049	0.017471313	
1737110817050	-0.021057129	
1737110817051	-0.038223267	
1737110817052	-0.002822876	
1737110817053	0.009231567	
1737110817054	0.002670288	
1737110817055	0.0020599365	
1737110817056	0.021057129	
1737110817057	0.035095215	
1737110817058	0.024032593	
1737110817059	0.025253296	
1737110817060	0.029754639	
1737110817061	0.002670288	
1737110817062	0.0016784668	
1737110817063	-0.012207031	
1737110817064	-0.017547607	
1737110817065	0.0015258789	
1737110817066	0.013656616	
1737110817067	0.02166748	
1737110817068	-0.0051116943	
1737110817069	-0.009307861	
1737110817070	5.340576E-4	
1737110817071	0.006866455	
1737110817072	0.014343262	
1737110817073	0.010681152	
1737110817074	-0.0032043457	
1737110817075	-0.014953613	
1737110817076	-4.5776367E-4	
1737110817077	0.004043579	
1737110817078	0.016784668	
1737110817079	0.017547607	
1737110817080	0.004043579	
1737110817081	-0.02243042	
1737110817082	-0.036010742	
1737110817083	-0.024719238	
1737110817084	-0.038909912	
1737110817085	-0.033798218	
1737110817086	-0.02822876	
1737110817087	-0.0119018555	
1737110817088	0.0036621094	
1737110817089	-0.0023651123	
1737110817090	0.0077056885	
1737110817091	0.009155273	
1737110817092	0.0011444092	
1737110817093	-0.013961792	
1737110817094	-0.023117065	
1737110817095	0.005722046	
1737110817096	0.0077056885	
1737110817097	0.0021362305	
1737110817098	0.009841919	
1737110817099	-0.0017547607	
1737110817100	3.8146973E-4	
1737110817101	-3.8146973E-4	
1737110817102	0.00541687	
1737110817103	0.02319336	
1737110817104	0.013809204	
1737110817105	0.012283325	
1737110817106	0.012359619	
1737110817107	0.015029907	
1737110817108	0.032958984	
1737110817109	0.029830933	
1737110817110	0.021820068	
1737110817111	0.016937256	
1737110817112	0.012588501	
1737110817113	0.010375977	
1737110817114	0.011444092	
1737110817115	0.002746582	
1737110817116	-0.0033569336	
1737110817117	-0.009231567	
1737110817118	-0.004348755	
1737110817119	-0.0038146973	
1737110817120	-0.0035858154	
1737110817121	-0.012283325	
1737110817122	-0.0146484375	
1737110817123	-0.014038086	
1737110817124	-0.023040771	
1737110817125	-0.022201538	
1737110817126	-0.020904541	
1737110817127	-0.016860962	
1737110817128	-0.017623901	
1737110817129	-0.014801025	
1737110817130	-0.025024414	
1737110817131	-0.032043457	
1737110817132	-0.006713867	
1737110817133	-0.009002686	
1737110817134	-0.0074768066	
1737110817135	-0.011520386	
1737110817136	-0.0059509277	
1737110817137	0.0065612793	
1737110817138	0.0038909912	
1737110817139	0.0050354004	
1737110817140	0.0104522705	
1737110817141	0.029220581	
1737110817142	0.03593445	
1737110817143	0.046081543	
1737110817144	0.06866455	
1737110817145	0.06462097	
1737110817146	0.072021484	
1737110817147	0.07385254	
1737110817148	0.02456665	
1737110817149	0.005493164	
1737110817150	-0.032958984	
1737110817151	-0.06980896	
1737110817152	0.0047302246	
1737110817153	0.040283203	
1737110817154	0.018844604	
1737110817155	0.015792847	
1737110817156	-0.0025177002	
1737110817157	-0.021591187	
1737110817158	-0.034103394	
1737110817159	-0.01335144	
1737110817160	0.0074005127	
1737110817161	-0.012283325	
1737110817162	-0.024795532	
1737110817163	-0.032958984	
1737110817164	-0.038909912	
1737110817165	-0.053100586	
1737110817166	-0.053253174	
1737110817167	-0.058441162	
1737110817168	-0.08087158	
1737110817169	-0.102767944	
1737110817170	-0.091552734	
1737110817171	-0.014953613	
1737110817172	0.038604736	
1737110817173	0.035705566	
1737110817174	0.028381348	
1737110817175	0.029449463	
1737110817176	0.027542114	
1737110817177	0.023117065	
1737110817178	-0.0073242188	
1737110817179	-0.062942505	
1737110817180	-0.025787354	
1737110817181	0.0541687	
1737110817182	0.041503906	
1737110817183	0.03730774	
1737110817184	0.042648315	
1737110817185	0.001373291	
1737110817186	0.016021729	
1737110817187	0.054855347	
1737110817188	0.0717926	
1737110817189	0.07484436	
1737110817190	0.06454468	
1737110817191	0.0491333	
1737110817192	0.035858154	
1737110817193	6.1035156E-4	
1737110817194	-0.058670044	
1737110817195	-0.076675415	
1737110817196	-0.040512085	
1737110817197	0.023345947	
1737110817198	0.06523132	
1737110817199	0.0667572	
1737110817200	0.050582886	
1737110817201	0.0064849854	
1737110817202	-0.009231567	
1737110817203	0.008010864	
1737110817204	0.0077819824	
1737110817205	-0.009765625	
1737110817206	-0.05760193	
1737110817207	-0.071258545	
1737110817208	-0.05882263	
1737110817209	-0.062026978	
1737110817210	-0.01991272	
1737110817211	0.0032043457	
1737110817212	-0.03250122	
1737110817213	-0.019760132	
1737110817214	0.03829956	
1737110817215	0.020904541	
1737110817216	-0.035858154	
1737110817217	-0.036697388	
1737110817218	-0.02822876	
1737110817219	0.027694702	
1737110817220	0.086746216	
1737110817221	0.039215088	
1737110817222	-0.0059509277	
1737110817223	-0.027999878	
1737110817224	-0.081329346	
1737110817225	-0.11222839	
1737110817226	-0.09269714	
1737110817227	-0.03265381	
1737110817228	0.03829956	
1737110817229	0.063705444	
1737110817230	0.065460205	
1737110817231	0.033798218	
1737110817232	-0.03463745	
1737110817233	-0.024490356	
1737110817234	-0.030288696	
1737110817235	-0.06904602	
1737110817236	-0.05935669	
1737110817237	-0.0541687	
1737110817238	0.011367798	
1737110817239	0.07759094	
1737110817240	0.11016846	
1737110817241	0.118637085	
1737110817242	0.06317139	
1737110817243	0.07659912	
1737110817244	0.097579956	
1737110817245	0.070495605	
1737110817246	0.07476807	
1737110817247	-0.004196167	
1737110817248	-0.06996155	
1737110817249	-0.09941101	
