# OpenSignals Text File Format
# {"00:80:E1:26:A1:B0":{"sensor":["EMG"],"device name":"00:80:E1:26:A1:B0","column":["timestamp","EMG"],"sync interval":2,"time":"12:36:27","comments":"","keywords":"","device connection":"BLE00:80:E1:26:A1:B0","channels":[0],"date":"2025-03-03","mode":0,"digital IO":[],"firmware version":259,"device":"musclebanplux","position":0,"sampling rate":1000,"label":["EMG"],"resolution":[16],"special":[{}],"sleeve color":["UNKNOWN"]}}
# EndOfHeader
1741001788443	-0.0062561035	
1741001788444	-0.014953613	
1741001788445	0.0050354004	
1741001788446	0.011062622	
1741001788447	1.5258789E-4	
1741001788448	0.0015258789	
1741001788449	0.0011444092	
1741001788450	-0.0037384033	
1741001788451	-0.0022125244	
1741001788452	0.001449585	
1741001788453	0.0049591064	
1741001788454	0.012283325	
1741001788455	0.017166138	
1741001788456	0.014266968	
1741001788457	0.0050354004	
1741001788458	-0.010604858	
1741001788459	-0.016555786	
1741001788460	-0.010375977	
1741001788461	8.392334E-4	
1741001788462	0.006713867	
1741001788463	-0.0031280518	
1741001788464	-0.004501343	
1741001788465	-0.002746582	
1741001788466	4.5776367E-4	
1741001788467	0.0061798096	
1741001788468	7.6293945E-4	
1741001788469	0.00831604	
1741001788470	0.008163452	
1741001788471	-0.0032806396	
1741001788472	0.0033569336	
1741001788473	-2.2888184E-4	
1741001788474	-0.01121521	
1741001788475	-0.009002686	
1741001788476	0.0016021729	
1741001788477	0.012893677	
1741001788478	0.008926392	
1741001788479	-0.0060272217	
1741001788480	-0.0073242188	
1741001788481	-0.012359619	
1741001788482	-0.019302368	
1741001788483	-0.0020599365	
1741001788484	0.0016021729	
1741001788485	3.0517578E-4	
1741001788486	0.010528564	
1741001788487	0.003967285	
1741001788488	0.0	
1741001788489	0.0046539307	
1741001788490	0.007019043	
1741001788491	0.0064849854	
1741001788492	0.005264282	
1741001788493	8.392334E-4	
1741001788494	-0.0035095215	
1741001788495	0.004425049	
1741001788496	0.0020599365	
1741001788497	-0.0025177002	
1741001788498	-1.5258789E-4	
1741001788499	-0.0030517578	
1741001788500	0.002746582	
1741001788501	-0.0020599365	
1741001788502	-0.0063323975	
1741001788503	0.0012969971	
1741001788504	-0.0019836426	
1741001788505	-3.8146973E-4	
1741001788506	-0.0019073486	
1741001788507	-0.008010864	
1741001788508	-0.0035858154	
1741001788509	-7.6293945E-4	
1741001788510	0.004196167	
1741001788511	-1.5258789E-4	
1741001788512	-0.0032043457	
1741001788513	0.005722046	
1741001788514	0.002822876	
1741001788515	0.0035858154	
1741001788516	0.007171631	
1741001788517	-8.392334E-4	
1741001788518	3.8146973E-4	
1741001788519	0.002822876	
1741001788520	-9.918213E-4	
1741001788521	-0.004043579	
1741001788522	-0.0074005127	
1741001788523	-6.866455E-4	
1741001788524	0.0032043457	
1741001788525	-0.0032043457	
1741001788526	0.0020599365	
1741001788527	0.0033569336	
1741001788528	-0.002670288	
1741001788529	0.0032043457	
1741001788530	0.005722046	
1741001788531	0.00289917	
1741001788532	0.0074768066	
1741001788533	0.0032806396	
1741001788534	-0.010681152	
1741001788535	-0.015487671	
1741001788536	-0.0037384033	
1741001788537	0.0048828125	
1741001788538	-0.0035858154	
1741001788539	-0.0045776367	
1741001788540	8.392334E-4	
1741001788541	-0.002822876	
1741001788542	2.2888184E-4	
1741001788543	0.0033569336	
1741001788544	0.005569458	
1741001788545	0.009689331	
1741001788546	0.0037384033	
1741001788547	-0.0048065186	
1741001788548	-0.0012969971	
1741001788549	0.0051879883	
1741001788550	0.0047302246	
1741001788551	0.0034332275	
1741001788552	-0.0036621094	
1741001788553	-0.0016021729	
1741001788554	0.004196167	
1741001788555	-0.005874634	
1741001788556	-0.00579834	
1741001788557	-0.0017547607	
1741001788558	-4.5776367E-4	
1741001788559	0.008773804	
1741001788560	0.006866455	
1741001788561	-0.007095337	
1741001788562	-0.008850098	
1741001788563	-0.0045776367	
1741001788564	-0.0023651123	
1741001788565	-0.0035858154	
1741001788566	-0.004043579	
1741001788567	0.0037384033	
1741001788568	0.0033569336	
1741001788569	0.00289917	
1741001788570	0.007095337	
1741001788571	0.004119873	
1741001788572	0.0023651123	
1741001788573	0.0032806396	
1741001788574	-0.001373291	
1741001788575	-0.009460449	
1741001788576	-0.0075531006	
1741001788577	0.0064849854	
1741001788578	0.006790161	
1741001788579	-0.008621216	
1741001788580	-0.0048065186	
1741001788581	0.010147095	
1741001788582	-6.866455E-4	
1741001788583	-0.007095337	
1741001788584	0.0037384033	
1741001788585	0.0022125244	
1741001788586	-0.0030517578	
1741001788587	-0.003967285	
1741001788588	-0.0038146973	
1741001788589	0.005569458	
1741001788590	0.012130737	
1741001788591	0.0022125244	
1741001788592	-0.0050354004	
1741001788593	-0.0016784668	
1741001788594	-9.1552734E-4	
1741001788595	-0.004043579	
1741001788596	0.0046539307	
1741001788597	0.0118255615	
1741001788598	0.0031280518	
1741001788599	-0.008087158	
1741001788600	-0.007095337	
1741001788601	0.0035858154	
1741001788602	-0.0021362305	
1741001788603	-0.00869751	
1741001788604	0.0016784668	
1741001788605	0.0022888184	
1741001788606	0.005264282	
1741001788607	0.007171631	
1741001788608	-0.002670288	
1741001788609	9.918213E-4	
1741001788610	-0.004272461	
1741001788611	-0.008163452	
1741001788612	0.0061035156	
1741001788613	0.0022888184	
1741001788614	0.0	
1741001788615	9.1552734E-4	
1741001788616	-0.0061035156	
1741001788617	4.5776367E-4	
1741001788618	0.0059509277	
1741001788619	0.0038909912	
1741001788620	-0.015640259	
1741001788621	-0.012741089	
1741001788622	0.009231567	
1741001788623	0.0025939941	
1741001788624	0.0051879883	
1741001788625	-8.392334E-4	
1741001788626	-0.008621216	
1741001788627	0.0048828125	
1741001788628	0.0038909912	
1741001788629	0.007247925	
1741001788630	0.0074005127	
1741001788631	0.0018310547	
1741001788632	0.0045776367	
1741001788633	-0.0104522705	
1741001788634	-0.0132751465	
1741001788635	0.005569458	
1741001788636	0.020599365	
1741001788637	0.018539429	
1741001788638	-0.012741089	
1741001788639	-0.019989014	
1741001788640	-9.1552734E-4	
1741001788641	-0.0132751465	
1741001788642	-0.0132751465	
1741001788643	0.006713867	
1741001788644	0.0025177002	
1741001788645	0.006790161	
1741001788646	0.012512207	
1741001788647	-0.0062561035	
1741001788648	-0.005722046	
1741001788649	0.0031280518	
1741001788650	-0.008544922	
1741001788651	-0.011444092	
1741001788652	0.0074768066	
1741001788653	0.009155273	
1741001788654	0.0016784668	
1741001788655	0.012435913	
1741001788656	0.012588501	
1741001788657	7.6293945E-4	
1741001788658	-0.008392334	
1741001788659	-0.010070801	
1741001788660	6.866455E-4	
1741001788661	0.006713867	
1741001788662	0.0022125244	
1741001788663	-0.005264282	
1741001788664	-0.005569458	
1741001788665	-0.002670288	
1741001788666	-0.002822876	
1741001788667	0.0063323975	
1741001788668	-0.0019836426	
1741001788669	-0.009155273	
1741001788670	0.009307861	
1741001788671	0.0064849854	
1741001788672	-0.005340576	
1741001788673	5.340576E-4	
1741001788674	0.0025177002	
1741001788675	-0.005340576	
1741001788676	-0.009002686	
1741001788677	2.2888184E-4	
1741001788678	0.008163452	
1741001788679	0.0051116943	
1741001788680	0.0032043457	
1741001788681	0.005722046	
1741001788682	-7.6293945E-5	
1741001788683	-0.0032043457	
1741001788684	-0.0015258789	
1741001788685	-9.1552734E-4	
1741001788686	-0.0012969971	
1741001788687	-0.0012207031	
1741001788688	0.0016784668	
1741001788689	-0.0018310547	
1741001788690	-7.6293945E-5	
1741001788691	0.0036621094	
1741001788692	8.392334E-4	
1741001788693	0.0025177002	
1741001788694	-0.0018310547	
1741001788695	-0.002746582	
1741001788696	0.004043579	
1741001788697	-7.6293945E-5	
1741001788698	-0.007019043	
1741001788699	-0.005264282	
1741001788700	-0.0030517578	
1741001788701	9.918213E-4	
1741001788702	0.0032806396	
1741001788703	0.0031280518	
1741001788704	-4.5776367E-4	
1741001788705	-0.006866455	
1741001788706	-0.001373291	
1741001788707	-3.0517578E-4	
1741001788708	-0.0022125244	
1741001788709	0.003967285	
1741001788710	0.0025177002	
1741001788711	-1.5258789E-4	
1741001788712	0.0029754639	
1741001788713	-0.0025177002	
1741001788714	-0.0033569336	
1741001788715	0.002822876	
1741001788716	8.392334E-4	
1741001788717	0.0017547607	
1741001788718	0.0032806396	
1741001788719	0.0029754639	
1741001788720	0.0061035156	
1741001788721	-0.0015258789	
1741001788722	-0.0025177002	
1741001788723	0.0025177002	
1741001788724	-0.0012207031	
1741001788725	0.0031280518	
1741001788726	6.1035156E-4	
1741001788727	-0.0019836426	
1741001788728	0.002822876	
1741001788729	-0.0036621094	
1741001788730	-0.0016784668	
1741001788731	0.007095337	
1741001788732	0.009613037	
1741001788733	0.002822876	
1741001788734	-7.6293945E-5	
1741001788735	6.866455E-4	
1741001788736	-0.011367798	
1741001788737	-0.011978149	
1741001788738	-0.0077056885	
1741001788739	-0.0034332275	
1741001788740	0.0061035156	
1741001788741	0.0021362305	
1741001788742	-0.007171631	
1741001788743	-0.005340576	
1741001788744	0.0016784668	
1741001788745	0.001449585	
1741001788746	-0.0016021729	
1741001788747	6.866455E-4	
1741001788748	0.0024414062	
1741001788749	0.005264282	
1741001788750	0.002822876	
1741001788751	-0.0032806396	
1741001788752	-0.0012969971	
1741001788753	0.008926392	
1741001788754	0.00869751	
1741001788755	-0.009765625	
1741001788756	-0.023345947	
1741001788757	-3.8146973E-4	
1741001788758	0.020980835	
1741001788759	-4.5776367E-4	
1741001788760	-0.0020599365	
1741001788761	0.0038146973	
1741001788762	-0.004425049	
1741001788763	0.008773804	
1741001788764	0.013885498	
1741001788765	0.0066375732	
1741001788766	0.002670288	
1741001788767	-0.008544922	
1741001788768	-0.007095337	
1741001788769	-0.0012969971	
1741001788770	-0.0019836426	
1741001788771	0.0051116943	
1741001788772	0.0033569336	
1741001788773	0.0012969971	
1741001788774	6.866455E-4	
1741001788775	-0.0012969971	
1741001788776	9.1552734E-4	
1741001788777	-0.008087158	
1741001788778	-0.016860962	
1741001788779	-0.015106201	
1741001788780	-0.0048828125	
1741001788781	0.009689331	
1741001788782	0.010375977	
1741001788783	0.0025939941	
1741001788784	-0.005569458	
1741001788785	-0.005645752	
1741001788786	0.008544922	
1741001788787	0.0051116943	
1741001788788	-0.0035858154	
1741001788789	0.0020599365	
1741001788790	0.0022125244	
1741001788791	-0.0015258789	
1741001788792	-0.0016021729	
1741001788793	0.003967285	
1741001788794	0.0090789795	
1741001788795	0.008087158	
1741001788796	0.0063323975	
1741001788797	0.0015258789	
1741001788798	-0.0118255615	
1741001788799	-0.015106201	
1741001788800	4.5776367E-4	
1741001788801	0.0032806396	
1741001788802	-0.004043579	
1741001788803	-0.0016784668	
1741001788804	0.0017547607	
1741001788805	0.001449585	
1741001788806	-0.0060272217	
1741001788807	0.0032806396	
1741001788808	0.010910034	
1741001788809	0.0032043457	
1741001788810	0.0075531006	
1741001788811	0.007171631	
1741001788812	3.0517578E-4	
1741001788813	-0.008010864	
1741001788814	-0.02029419	
1741001788815	-0.0024414062	
1741001788816	0.018844604	
1741001788817	0.005645752	
1741001788818	-0.008010864	
1741001788819	-0.012130737	
1741001788820	-0.006942749	
1741001788821	0.004348755	
1741001788822	0.004043579	
1741001788823	0.0017547607	
1741001788824	-0.005340576	
1741001788825	-0.0038909912	
1741001788826	0.004348755	
1741001788827	0.0032806396	
1741001788828	0.0050354004	
1741001788829	0.0051116943	
1741001788830	-0.0064086914	
1741001788831	-0.018615723	
1741001788832	-0.010223389	
1741001788833	0.0104522705	
1741001788834	0.011520386	
1741001788835	0.008544922	
1741001788836	0.010986328	
1741001788837	0.0064086914	
1741001788838	6.866455E-4	
1741001788839	-0.0012207031	
1741001788840	0.0023651123	
1741001788841	-0.0022125244	
1741001788842	-0.009155273	
1741001788843	-7.6293945E-4	
1741001788844	3.8146973E-4	
1741001788845	-0.007858276	
1741001788846	-0.004272461	
1741001788847	0.009307861	
1741001788848	0.005722046	
1741001788849	8.392334E-4	
1741001788850	0.01586914	
1741001788851	0.004272461	
1741001788852	-0.024261475	
1741001788853	-0.022506714	
1741001788854	0.0015258789	
1741001788855	2.2888184E-4	
1741001788856	-0.016860962	
1741001788857	-0.0059509277	
1741001788858	0.0029754639	
1741001788859	0.0064086914	
1741001788860	0.008087158	
1741001788861	0.0048828125	
1741001788862	0.0118255615	
1741001788863	0.0049591064	
1741001788864	-0.009231567	
1741001788865	-0.009613037	
1741001788866	0.0075531006	
1741001788867	0.01449585	
1741001788868	-0.0036621094	
1741001788869	0.0011444092	
1741001788870	0.008468628	
1741001788871	6.1035156E-4	
1741001788872	0.0011444092	
1741001788873	0.0016021729	
1741001788874	7.6293945E-4	
1741001788875	0.0019073486	
1741001788876	0.004501343	
1741001788877	0.0019073486	
1741001788878	-0.0051116943	
1741001788879	-0.0051879883	
1741001788880	-0.0032043457	
1741001788881	-0.002670288	
1741001788882	-0.0045776367	
1741001788883	-2.2888184E-4	
1741001788884	0.0010681152	
1741001788885	0.001449585	
1741001788886	0.0063323975	
1741001788887	0.0	
1741001788888	-0.007019043	
1741001788889	-0.008087158	
1741001788890	-0.00869751	
1741001788891	-0.011444092	
1741001788892	8.392334E-4	
1741001788893	0.0064849854	
1741001788894	-0.0050354004	
1741001788895	0.0030517578	
1741001788896	0.0077819824	
1741001788897	0.005874634	
1741001788898	0.009231567	
1741001788899	0.0018310547	
1741001788900	-0.0022888184	
1741001788901	-6.1035156E-4	
1741001788902	0.0047302246	
1741001788903	-1.5258789E-4	
1741001788904	-0.010757446	
1741001788905	-8.392334E-4	
1741001788906	0.009231567	
1741001788907	0.0038146973	
1741001788908	0.0023651123	
1741001788909	8.392334E-4	
1741001788910	-0.007019043	
1741001788911	-0.0018310547	
1741001788912	2.2888184E-4	
1741001788913	-0.004425049	
1741001788914	0.0011444092	
1741001788915	0.0012969971	
1741001788916	7.6293945E-5	
1741001788917	0.0075531006	
1741001788918	0.003967285	
1741001788919	-0.0017547607	
1741001788920	0.0015258789	
1741001788921	-0.002670288	
1741001788922	-2.2888184E-4	
1741001788923	-0.001373291	
1741001788924	-0.0062561035	
1741001788925	2.2888184E-4	
1741001788926	0.0037384033	
1741001788927	-8.392334E-4	
1741001788928	-0.002822876	
1741001788929	0.0015258789	
1741001788930	0.0037384033	
1741001788931	-9.1552734E-4	
1741001788932	8.392334E-4	
1741001788933	0.0060272217	
1741001788934	-0.005493164	
1741001788935	-0.011062622	
1741001788936	0.0017547607	
1741001788937	-6.1035156E-4	
1741001788938	-0.0060272217	
1741001788939	-0.0012969971	
1741001788940	-0.002822876	
1741001788941	-0.0016021729	
1741001788942	-0.00541687	
1741001788943	-5.340576E-4	
1741001788944	0.01121521	
1741001788945	0.009002686	
1741001788946	0.0077819824	
1741001788947	-0.0011444092	
1741001788948	-0.012664795	
1741001788949	-0.0036621094	
1741001788950	3.8146973E-4	
1741001788951	-0.005874634	
1741001788952	0.01159668	
1741001788953	0.017623901	
1741001788954	6.866455E-4	
1741001788955	-6.1035156E-4	
1741001788956	-1.5258789E-4	
1741001788957	0.004272461	
1741001788958	0.012512207	
1741001788959	2.2888184E-4	
1741001788960	-0.0066375732	
1741001788961	-9.918213E-4	
1741001788962	-0.0018310547	
1741001788963	-0.0051879883	
1741001788964	-0.0017547607	
1741001788965	-0.006713867	
1741001788966	-0.016403198	
1741001788967	-0.0048065186	
1741001788968	0.0074768066	
1741001788969	5.340576E-4	
1741001788970	0.004043579	
1741001788971	0.0061798096	
1741001788972	-9.1552734E-4	
1741001788973	0.0047302246	
1741001788974	-0.0012207031	
1741001788975	-0.0025939941	
1741001788976	0.004501343	
1741001788977	-0.002822876	
1741001788978	-0.0061035156	
1741001788979	-0.001373291	
1741001788980	-1.5258789E-4	
1741001788981	-4.5776367E-4	
1741001788982	0.0015258789	
1741001788983	0.0035858154	
1741001788984	0.0019073486	
1741001788985	-0.0032806396	
1741001788986	-0.0015258789	
1741001788987	0.0033569336	
1741001788988	0.0025939941	
1741001788989	-7.6293945E-5	
1741001788990	0.0019073486	
1741001788991	0.0022888184	
1741001788992	-0.0034332275	
1741001788993	-0.004348755	
1741001788994	4.5776367E-4	
1741001788995	8.392334E-4	
1741001788996	0.0017547607	
1741001788997	0.00541687	
1741001788998	0.0023651123	
1741001788999	6.866455E-4	
1741001789000	0.001373291	
1741001789001	-0.0020599365	
1741001789002	-0.0046539307	
1741001789003	-0.0037384033	
1741001789004	6.1035156E-4	
1741001789005	9.918213E-4	
1741001789006	-4.5776367E-4	
1741001789007	1.5258789E-4	
1741001789008	-0.0017547607	
1741001789009	-1.5258789E-4	
1741001789010	-0.0025177002	
1741001789011	-0.004348755	
1741001789012	0.004501343	
1741001789013	0.0032043457	
1741001789014	-0.0019836426	
1741001789015	0.004272461	
1741001789016	0.0036621094	
1741001789017	-0.0018310547	
1741001789018	-0.0045776367	
1741001789019	-0.0059509277	
1741001789020	8.392334E-4	
1741001789021	0.006713867	
1741001789022	3.8146973E-4	
1741001789023	-0.0047302246	
1741001789024	-0.008621216	
1741001789025	-0.005874634	
1741001789026	0.011520386	
1741001789027	0.01083374	
1741001789028	0.001449585	
1741001789029	5.340576E-4	
1741001789030	0.0017547607	
1741001789031	0.004425049	
1741001789032	-0.0033569336	
1741001789033	-0.0036621094	
1741001789034	0.005264282	
1741001789035	0.0045776367	
1741001789036	0.01159668	
1741001789037	-0.0021362305	
1741001789038	-0.022277832	
1741001789039	-0.0033569336	
1741001789040	0.0050354004	
1741001789041	-8.392334E-4	
1741001789042	-0.0024414062	
1741001789043	-0.0021362305	
1741001789044	0.002746582	
1741001789045	0.0022888184	
1741001789046	0.007247925	
1741001789047	4.5776367E-4	
1741001789048	-0.020370483	
1741001789049	-0.026550293	
1741001789050	-0.005340576	
1741001789051	0.012207031	
1741001789052	0.004348755	
1741001789053	9.918213E-4	
1741001789054	0.016784668	
1741001789055	0.024490356	
1741001789056	0.019989014	
1741001789057	0.014343262	
1741001789058	-0.008773804	
1741001789059	-0.017700195	
1741001789060	7.6293945E-4	
1741001789061	-0.0048065186	
1741001789062	-0.012054443	
1741001789063	-0.00541687	
1741001789064	-0.0077819824	
1741001789065	-0.0034332275	
1741001789066	-0.005569458	
1741001789067	-0.009613037	
1741001789068	0.0020599365	
1741001789069	0.010757446	
1741001789070	0.013122559	
1741001789071	0.0064849854	
1741001789072	0.0029754639	
1741001789073	-2.2888184E-4	
1741001789074	-0.005645752	
1741001789075	-0.0045776367	
1741001789076	3.0517578E-4	
1741001789077	0.0017547607	
1741001789078	-0.0016021729	
1741001789079	9.918213E-4	
1741001789080	0.0016021729	
1741001789081	7.6293945E-5	
1741001789082	-0.0020599365	
1741001789083	-0.0035858154	
1741001789084	-0.007171631	
1741001789085	-0.001373291	
1741001789086	0.0012207031	
1741001789087	-0.0050354004	
1741001789088	0.007171631	
1741001789089	0.00869751	
1741001789090	0.00541687	
1741001789091	0.009689331	
1741001789092	0.0024414062	
1741001789093	0.0	
1741001789094	0.0012207031	
1741001789095	-0.0016784668	
1741001789096	-0.0037384033	
1741001789097	-0.0022125244	
1741001789098	-0.0038146973	
1741001789099	-0.00541687	
1741001789100	4.5776367E-4	
1741001789101	0.006713867	
1741001789102	0.0050354004	
1741001789103	-0.009460449	
1741001789104	-0.017166138	
1741001789105	-0.01739502	
1741001789106	-0.0031280518	
1741001789107	0.015258789	
1741001789108	0.009231567	
1741001789109	0.010070801	
1741001789110	0.01121521	
1741001789111	-6.1035156E-4	
1741001789112	7.6293945E-5	
1741001789113	-0.0035095215	
1741001789114	-0.004119873	
1741001789115	0.0015258789	
1741001789116	-3.8146973E-4	
1741001789117	-6.866455E-4	
1741001789118	-9.918213E-4	
1741001789119	0.0024414062	
1741001789120	0.0034332275	
1741001789121	0.00289917	
1741001789122	0.001449585	
1741001789123	-0.0075531006	
1741001789124	-0.009155273	
1741001789125	-7.6293945E-4	
1741001789126	-0.0016021729	
1741001789127	-0.0038909912	
1741001789128	0.005569458	
1741001789129	-0.0011444092	
1741001789130	-0.00289917	
1741001789131	0.010681152	
1741001789132	0.007095337	
1741001789133	0.0064849854	
1741001789134	0.009460449	
1741001789135	0.0034332275	
1741001789136	-0.004043579	
1741001789137	-0.0077056885	
1741001789138	-0.014724731	
1741001789139	-0.023880005	
1741001789140	-0.008926392	
1741001789141	0.012512207	
1741001789142	0.0118255615	
1741001789143	0.0048065186	
1741001789144	-0.0024414062	
1741001789145	-7.6293945E-4	
1741001789146	0.0062561035	
1741001789147	-0.009384155	
1741001789148	-0.012435913	
1741001789149	0.011444092	
1741001789150	0.012817383	
1741001789151	0.0024414062	
1741001789152	-0.0019073486	
1741001789153	-0.002822876	
1741001789154	0.004425049	
1741001789155	0.0075531006	
1741001789156	0.009613037	
1741001789157	0.00579834	
1741001789158	-0.0047302246	
1741001789159	-0.00289917	
1741001789160	-9.918213E-4	
1741001789161	-0.0025177002	
1741001789162	-0.002746582	
1741001789163	-0.0023651123	
1741001789164	-0.0032806396	
1741001789165	-0.0062561035	
1741001789166	-0.004501343	
1741001789167	0.0020599365	
1741001789168	0.0020599365	
1741001789169	8.392334E-4	
1741001789170	0.0031280518	
1741001789171	-0.0048065186	
1741001789172	-0.0046539307	
1741001789173	0.0019836426	
1741001789174	-0.00289917	
1741001789175	0.002670288	
1741001789176	6.1035156E-4	
1741001789177	-0.009460449	
1741001789178	9.918213E-4	
1741001789179	0.0035095215	
1741001789180	-0.0017547607	
1741001789181	0.0010681152	
1741001789182	-0.0032043457	
1741001789183	-0.005569458	
1741001789184	0.0051116943	
1741001789185	0.01838684	
1741001789186	0.023269653	
1741001789187	0.012207031	
1741001789188	2.2888184E-4	
1741001789189	-0.008621216	
1741001789190	-0.025024414	
1741001789191	-0.022125244	
1741001789192	-0.0048828125	
1741001789193	-0.001373291	
1741001789194	0.006790161	
1741001789195	0.008544922	
1741001789196	0.0033569336	
1741001789197	0.008850098	
1741001789198	8.392334E-4	
1741001789199	-0.0019073486	
1741001789200	0.002822876	
1741001789201	-0.0021362305	
1741001789202	0.0035095215	
1741001789203	0.0022125244	
1741001789204	-0.0062561035	
1741001789205	6.1035156E-4	
1741001789206	-0.0023651123	
1741001789207	-0.0022888184	
1741001789208	0.0059509277	
1741001789209	-7.6293945E-4	
1741001789210	-0.0023651123	
1741001789211	4.5776367E-4	
1741001789212	-8.392334E-4	
1741001789213	-0.0012207031	
1741001789214	-0.0076293945	
1741001789215	-0.006942749	
1741001789216	0.001449585	
1741001789217	0.0074768066	
1741001789218	0.010223389	
1741001789219	0.00579834	
1741001789220	0.0046539307	
1741001789221	-0.008010864	
1741001789222	-0.018539429	
1741001789223	-0.0033569336	
1741001789224	0.005493164	
1741001789225	0.002822876	
1741001789226	0.013885498	
1741001789227	0.008163452	
1741001789228	-0.0034332275	
1741001789229	-0.0016021729	
1741001789230	-0.0074768066	
1741001789231	-0.007247925	
1741001789232	-0.0012969971	
1741001789233	-0.0033569336	
1741001789234	-0.0011444092	
1741001789235	0.004272461	
1741001789236	0.0059509277	
1741001789237	0.007019043	
1741001789238	-1.5258789E-4	
1741001789239	-0.00289917	
1741001789240	0.004501343	
1741001789241	0.0022125244	
1741001789242	-0.002822876	
1741001789243	0.0012969971	
1741001789244	0.0035858154	
1741001789245	3.8146973E-4	
1741001789246	0.0038146973	
1741001789247	-0.0077056885	
1741001789248	-0.016708374	
1741001789249	7.6293945E-4	
1741001789250	0.0025939941	
1741001789251	-0.005264282	
1741001789252	4.5776367E-4	
1741001789253	0.002670288	
1741001789254	0.0036621094	
1741001789255	3.8146973E-4	
1741001789256	-0.0022125244	
1741001789257	0.002670288	
1741001789258	0.0022888184	
1741001789259	0.0024414062	
1741001789260	0.0063323975	
1741001789261	0.0020599365	
1741001789262	-0.0046539307	
1741001789263	-0.009307861	
1741001789264	-0.009918213	
1741001789265	-0.004425049	
1741001789266	0.0035095215	
1741001789267	0.007019043	
1741001789268	0.011444092	
1741001789269	0.016555786	
1741001789270	0.012664795	
1741001789271	0.01083374	
1741001789272	0.0019073486	
1741001789273	-0.010681152	
1741001789274	-0.009384155	
1741001789275	-0.014343262	
1741001789276	-0.01953125	
1741001789277	-0.016326904	
1741001789278	-0.0077056885	
1741001789279	-5.340576E-4	
1741001789280	-0.0032043457	
1741001789281	0.004348755	
1741001789282	0.0118255615	
1741001789283	0.016555786	
1741001789284	0.020370483	
1741001789285	0.0063323975	
1741001789286	3.0517578E-4	
1741001789287	0.0015258789	
1741001789288	-0.0118255615	
1741001789289	-0.012359619	
1741001789290	-0.0060272217	
1741001789291	-0.007171631	
1741001789292	0.0048065186	
1741001789293	0.01411438	
1741001789294	0.017471313	
1741001789295	0.019607544	
1741001789296	0.0049591064	
1741001789297	-0.009384155	
1741001789298	-0.015411377	
1741001789299	-0.018692017	
1741001789300	-0.018997192	
1741001789301	-0.014343262	
1741001789302	-0.0049591064	
1741001789303	6.866455E-4	
1741001789304	0.005493164	
1741001789305	8.392334E-4	
1741001789306	-0.0032043457	
1741001789307	0.0024414062	
1741001789308	0.005569458	
1741001789309	0.0077056885	
1741001789310	0.0025939941	
1741001789311	0.004196167	
1741001789312	0.012817383	
1741001789313	0.0046539307	
1741001789314	0.004043579	
1741001789315	0.012054443	
1741001789316	0.007171631	
1741001789317	-9.918213E-4	
1741001789318	-0.002670288	
1741001789319	0.0029754639	
1741001789320	-7.6293945E-5	
1741001789321	-0.0021362305	
1741001789322	0.0022888184	
1741001789323	-0.009918213	
1741001789324	-0.013656616	
1741001789325	-0.011520386	
1741001789326	-0.012817383	
1741001789327	-0.0051879883	
1741001789328	-0.0019073486	
1741001789329	0.0029754639	
1741001789330	0.0060272217	
1741001789331	6.866455E-4	
1741001789332	0.0034332275	
1741001789333	0.005569458	
1741001789334	0.0049591064	
1741001789335	0.021743774	
1741001789336	0.02281189	
1741001789337	0.0030517578	
1741001789338	-0.0047302246	
1741001789339	-0.0132751465	
1741001789340	-0.018615723	
1741001789341	-0.004425049	
1741001789342	-0.0048065186	
1741001789343	-0.014801025	
1741001789344	-0.0074005127	
1741001789345	-0.004501343	
1741001789346	-0.004119873	
1741001789347	0.0	
1741001789348	0.0017547607	
1741001789349	0.0064849854	
1741001789350	0.013427734	
1741001789351	0.011138916	
1741001789352	-0.0019836426	
1741001789353	-0.004119873	
1741001789354	-6.866455E-4	
1741001789355	0.0019073486	
1741001789356	0.010223389	
1741001789357	0.0045776367	
1741001789358	-0.0051879883	
1741001789359	-0.0018310547	
1741001789360	0.0022125244	
1741001789361	-0.001373291	
1741001789362	9.1552734E-4	
1741001789363	0.0051879883	
1741001789364	0.005493164	
1741001789365	0.003967285	
1741001789366	-0.0012207031	
1741001789367	-0.005645752	
1741001789368	-0.005722046	
1741001789369	-0.0061798096	
1741001789370	-0.006942749	
1741001789371	5.340576E-4	
1741001789372	0.0076293945	
1741001789373	0.008163452	
1741001789374	0.0019073486	
1741001789375	-0.009460449	
1741001789376	-0.0022125244	
1741001789377	0.0063323975	
1741001789378	-0.0024414062	
1741001789379	-0.007247925	
1741001789380	-0.0076293945	
1741001789381	-0.0050354004	
1741001789382	0.0022125244	
1741001789383	0.0066375732	
1741001789384	0.008773804	
1741001789385	0.005722046	
1741001789386	-0.0012207031	
1741001789387	0.0022125244	
1741001789388	0.007247925	
1741001789389	-0.0012207031	
1741001789390	-0.0059509277	
1741001789391	-0.006713867	
1741001789392	-0.0090789795	
1741001789393	-0.0045776367	
1741001789394	0.0046539307	
1741001789395	-5.340576E-4	
1741001789396	-0.005340576	
1741001789397	0.004272461	
1741001789398	6.1035156E-4	
1741001789399	0.0025177002	
1741001789400	0.012893677	
1741001789401	0.012130737	
1741001789402	0.011520386	
1741001789403	0.0050354004	
1741001789404	-0.011749268	
1741001789405	-0.012054443	
1741001789406	-0.0012207031	
1741001789407	-0.006790161	
1741001789408	-0.012817383	
1741001789409	-0.0061035156	
1741001789410	-0.0047302246	
1741001789411	0.0031280518	
1741001789412	0.015258789	
1741001789413	0.0090789795	
1741001789414	6.1035156E-4	
1741001789415	-0.004272461	
1741001789416	-0.0051879883	
1741001789417	-0.006713867	
1741001789418	-0.009689331	
1741001789419	6.1035156E-4	
1741001789420	0.013885498	
1741001789421	0.01991272	
1741001789422	0.016098022	
1741001789423	0.0036621094	
1741001789424	-0.004119873	
1741001789425	-0.013198853	
1741001789426	-0.016403198	
1741001789427	-0.0019836426	
1741001789428	0.004272461	
1741001789429	0.0	
1741001789430	-0.0045776367	
1741001789431	-0.0062561035	
1741001789432	-0.007858276	
1741001789433	-0.004196167	
1741001789434	0.002822876	
1741001789435	0.008544922	
1741001789436	0.01083374	
1741001789437	0.005493164	
1741001789438	-0.0024414062	
1741001789439	-0.0038146973	
1741001789440	-0.0063323975	
1741001789441	-0.005264282	
1741001789442	-0.0059509277	
1741001789443	-0.0016784668	
1741001789444	0.008468628	
1741001789445	0.009155273	
1741001789446	0.009536743	
1741001789447	0.00541687	
1741001789448	9.918213E-4	
1741001789449	-0.0023651123	
1741001789450	-0.005264282	
1741001789451	-3.0517578E-4	
1741001789452	0.0016784668	
1741001789453	-0.0020599365	
1741001789454	-0.0019836426	
1741001789455	0.0051116943	
1741001789456	4.5776367E-4	
1741001789457	7.6293945E-5	
1741001789458	0.0024414062	
1741001789459	-0.0064849854	
1741001789460	0.0	
1741001789461	0.0016784668	
1741001789462	-0.0036621094	
1741001789463	0.0066375732	
1741001789464	0.010604858	
1741001789465	0.009994507	
1741001789466	0.0074005127	
1741001789467	-0.004501343	
1741001789468	-0.017852783	
1741001789469	-0.015487671	
1741001789470	-0.008163452	
1741001789471	-0.009765625	
1741001789472	-0.0032806396	
1741001789473	0.0023651123	
1741001789474	-0.0019836426	
1741001789475	-0.0048828125	
1741001789476	-0.0046539307	
1741001789477	-0.0038909912	
1741001789478	-0.001373291	
1741001789479	0.009689331	
1741001789480	0.01625061	
1741001789481	0.012207031	
1741001789482	0.007171631	
1741001789483	0.011367798	
1741001789484	0.015563965	
1741001789485	0.0	
1741001789486	-0.012207031	
1741001789487	-0.011520386	
1741001789488	-0.009613037	
1741001789489	-0.004425049	
1741001789490	-0.0063323975	
1741001789491	-0.011444092	
1741001789492	-0.0049591064	
1741001789493	0.009155273	
1741001789494	0.014419556	
1741001789495	0.009536743	
1741001789496	0.004196167	
1741001789497	0.0012969971	
1741001789498	-0.005722046	
1741001789499	-0.010681152	
1741001789500	-0.004119873	
1741001789501	0.011291504	
1741001789502	0.01335144	
1741001789503	9.1552734E-4	
1741001789504	-0.0036621094	
1741001789505	-0.0011444092	
1741001789506	0.005645752	
1741001789507	0.004272461	
1741001789508	-0.0035858154	
1741001789509	-0.005340576	
1741001789510	-0.0059509277	
1741001789511	-0.00541687	
1741001789512	-0.0035095215	
1741001789513	-0.0035858154	
1741001789514	4.5776367E-4	
1741001789515	0.00579834	
1741001789516	0.005340576	
1741001789517	0.004501343	
1741001789518	-0.0051116943	
1741001789519	-0.011749268	
1741001789520	-0.0037384033	
1741001789521	0.004043579	
1741001789522	0.0064849854	
1741001789523	0.001373291	
1741001789524	-0.002746582	
1741001789525	-0.0032043457	
1741001789526	-0.0035858154	
1741001789527	-1.5258789E-4	
1741001789528	-8.392334E-4	
1741001789529	0.003967285	
1741001789530	0.005340576	
1741001789531	6.866455E-4	
1741001789532	0.0045776367	
1741001789533	-0.0021362305	
1741001789534	-0.009231567	
1741001789535	-0.0048828125	
1741001789536	0.009689331	
1741001789537	0.013809204	
1741001789538	6.866455E-4	
1741001789539	-0.0018310547	
1741001789540	-0.009765625	
1741001789541	-0.0065612793	
1741001789542	0.004119873	
1741001789543	-0.002670288	
1741001789544	0.0019073486	
1741001789545	0.0033569336	
1741001789546	-0.0022888184	
1741001789547	-0.0012207031	
1741001789548	-0.006790161	
1741001789549	-0.0016021729	
1741001789550	0.008163452	
1741001789551	0.010223389	
1741001789552	0.0015258789	
1741001789553	-0.008544922	
1741001789554	-0.0061798096	
1741001789555	-0.004119873	
1741001789556	0.0060272217	
1741001789557	0.011672974	
1741001789558	0.009231567	
1741001789559	0.010757446	
1741001789560	1.5258789E-4	
1741001789561	-0.007171631	
1741001789562	-0.007019043	
1741001789563	-0.009307861	
1741001789564	-4.5776367E-4	
1741001789565	0.00541687	
1741001789566	0.004119873	
1741001789567	0.00541687	
1741001789568	-0.0021362305	
1741001789569	-0.004119873	
1741001789570	-0.004501343	
1741001789571	-0.0090789795	
1741001789572	0.001373291	
1741001789573	0.00793457	
1741001789574	8.392334E-4	
1741001789575	-0.005493164	
1741001789576	-0.011520386	
1741001789577	-0.0118255615	
1741001789578	-0.0020599365	
1741001789579	0.0030517578	
1741001789580	0.003967285	
1741001789581	0.0077819824	
1741001789582	0.004501343	
1741001789583	-6.866455E-4	
1741001789584	0.0012207031	
1741001789585	-3.0517578E-4	
1741001789586	7.6293945E-4	
1741001789587	0.006713867	
1741001789588	0.0047302246	
1741001789589	0.002670288	
1741001789590	-0.005340576	
1741001789591	-0.009689331	
1741001789592	-0.0018310547	
1741001789593	-0.0012969971	
1741001789594	-0.0010681152	
1741001789595	0.00289917	
1741001789596	0.0031280518	
1741001789597	0.0066375732	
1741001789598	0.0033569336	
1741001789599	-3.0517578E-4	
1741001789600	-7.6293945E-5	
1741001789601	-0.0012207031	
1741001789602	0.002822876	
1741001789603	6.1035156E-4	
1741001789604	-4.5776367E-4	
1741001789605	0.0032043457	
1741001789606	0.0050354004	
1741001789607	-1.5258789E-4	
1741001789608	-0.0051116943	
1741001789609	-0.0024414062	
1741001789610	-0.00289917	
1741001789611	0.001449585	
1741001789612	0.006942749	
1741001789613	-0.001449585	
1741001789614	-0.008239746	
1741001789615	-0.006713867	
1741001789616	-0.0012207031	
1741001789617	0.00793457	
1741001789618	0.008926392	
1741001789619	0.0020599365	
1741001789620	-0.007858276	
1741001789621	-0.012435913	
1741001789622	-0.006790161	
1741001789623	-0.0030517578	
1741001789624	0.0	
1741001789625	-0.0035858154	
1741001789626	-0.009613037	
1741001789627	-0.0030517578	
1741001789628	0.0062561035	
1741001789629	0.012207031	
1741001789630	0.012359619	
1741001789631	0.008850098	
1741001789632	0.0049591064	
1741001789633	0.0011444092	
1741001789634	0.0065612793	
1741001789635	0.0038909912	
1741001789636	-0.005722046	
1741001789637	-0.0025177002	
1741001789638	-0.004196167	
1741001789639	-0.00579834	
1741001789640	9.918213E-4	
1741001789641	3.0517578E-4	
1741001789642	-0.0036621094	
1741001789643	-0.004196167	
1741001789644	0.0	
1741001789645	-0.0012969971	
1741001789646	-0.00579834	
1741001789647	-0.0018310547	
1741001789648	-5.340576E-4	
1741001789649	-2.2888184E-4	
1741001789650	5.340576E-4	
1741001789651	0.0020599365	
1741001789652	0.0038146973	
1741001789653	0.0050354004	
1741001789654	0.004119873	
1741001789655	0.0011444092	
1741001789656	5.340576E-4	
1741001789657	-0.0018310547	
1741001789658	-5.340576E-4	
1741001789659	0.0038146973	
1741001789660	-0.0012207031	
1741001789661	-0.0023651123	
1741001789662	0.005340576	
1741001789663	0.0012969971	
1741001789664	-0.0011444092	
1741001789665	0.0019073486	
1741001789666	-0.0010681152	
1741001789667	-0.0016021729	
1741001789668	0.0031280518	
1741001789669	1.5258789E-4	
1741001789670	-0.0051116943	
1741001789671	9.1552734E-4	
1741001789672	-3.8146973E-4	
1741001789673	-0.0047302246	
1741001789674	-0.0022888184	
1741001789675	-0.004501343	
1741001789676	7.6293945E-5	
1741001789677	0.0023651123	
1741001789678	-0.00289917	
1741001789679	-0.0023651123	
1741001789680	-0.0032806396	
1741001789681	-7.6293945E-4	
1741001789682	0.0051879883	
1741001789683	0.005340576	
1741001789684	0.0024414062	
1741001789685	0.001373291	
1741001789686	7.6293945E-4	
1741001789687	-0.0025177002	
1741001789688	-0.0025177002	
1741001789689	-0.004043579	
1741001789690	-0.007095337	
1741001789691	-0.0024414062	
1741001789692	0.006713867	
1741001789693	0.011367798	
1741001789694	0.0016021729	
1741001789695	-0.0024414062	
1741001789696	0.007247925	
1741001789697	5.340576E-4	
1741001789698	-0.0019073486	
1741001789699	0.0048065186	
1741001789700	-0.0019836426	
1741001789701	-0.0033569336	
1741001789702	6.866455E-4	
1741001789703	0.0025939941	
1741001789704	0.0062561035	
1741001789705	-0.005264282	
1741001789706	-0.0063323975	
1741001789707	0.0038909912	
1741001789708	0.0	
1741001789709	-0.0021362305	
1741001789710	-0.005569458	
1741001789711	-0.0031280518	
1741001789712	0.0048828125	
1741001789713	0.005264282	
1741001789714	0.0037384033	
1741001789715	-0.005645752	
1741001789716	-0.019378662	
1741001789717	-0.019989014	
1741001789718	-0.0032043457	
1741001789719	0.0077819824	
1741001789720	0.0076293945	
1741001789721	0.012054443	
1741001789722	0.014953613	
1741001789723	0.0074768066	
1741001789724	0.0016021729	
1741001789725	0.004196167	
1741001789726	-0.0022888184	
1741001789727	-0.00541687	
1741001789728	-7.6293945E-5	
1741001789729	-0.008163452	
1741001789730	-0.008239746	
1741001789731	-0.0011444092	
1741001789732	0.005874634	
1741001789733	0.008544922	
1741001789734	0.004196167	
1741001789735	0.004196167	
1741001789736	-0.0012969971	
1741001789737	-0.0051879883	
1741001789738	-0.004501343	
1741001789739	-0.007171631	
1741001789740	6.866455E-4	
1741001789741	0.005264282	
1741001789742	0.0035095215	
1741001789743	0.0017547607	
1741001789744	-0.0019073486	
1741001789745	-0.0038909912	
1741001789746	-0.005340576	
1741001789747	-0.0020599365	
1741001789748	-0.005340576	
1741001789749	-0.0076293945	
1741001789750	-0.0022125244	
1741001789751	-0.0064086914	
1741001789752	-7.6293945E-5	
1741001789753	0.01121521	
1741001789754	0.009765625	
1741001789755	0.0076293945	
1741001789756	0.0010681152	
1741001789757	9.1552734E-4	
1741001789758	0.0037384033	
1741001789759	-0.0029754639	
1741001789760	0.0023651123	
1741001789761	0.008392334	
1741001789762	-2.2888184E-4	
1741001789763	0.0029754639	
1741001789764	0.004043579	
1741001789765	-1.5258789E-4	
1741001789766	7.6293945E-4	
1741001789767	-0.00579834	
1741001789768	-0.0060272217	
1741001789769	-0.0033569336	
1741001789770	-0.0035858154	
1741001789771	2.2888184E-4	
1741001789772	-0.004196167	
1741001789773	-0.0073242188	
1741001789774	-0.005874634	
1741001789775	-0.0032806396	
1741001789776	-9.1552734E-4	
1741001789777	0.0020599365	
1741001789778	0.010757446	
1741001789779	0.004196167	
1741001789780	-0.0029754639	
1741001789781	0.0024414062	
1741001789782	0.001449585	
1741001789783	-0.00289917	
1741001789784	0.0012969971	
1741001789785	0.0018310547	
1741001789786	-0.00541687	
1741001789787	-0.0018310547	
1741001789788	0.008163452	
1741001789789	0.0060272217	
1741001789790	-0.0012207031	
1741001789791	-0.0010681152	
1741001789792	-0.0018310547	
1741001789793	0.004196167	
1741001789794	0.005874634	
1741001789795	-0.0046539307	
1741001789796	-9.1552734E-4	
1741001789797	0.0016784668	
1741001789798	-8.392334E-4	
1741001789799	9.1552734E-4	
1741001789800	-0.005493164	
1741001789801	-0.002822876	
1741001789802	0.003967285	
1741001789803	-0.0016021729	
1741001789804	-0.005493164	
1741001789805	-0.005569458	
1741001789806	-0.0025177002	
1741001789807	-0.0018310547	
1741001789808	-0.0030517578	
1741001789809	0.007019043	
1741001789810	0.009231567	
1741001789811	6.866455E-4	
1741001789812	-5.340576E-4	
1741001789813	-0.0017547607	
1741001789814	7.6293945E-5	
1741001789815	0.0022888184	
1741001789816	-0.0048065186	
1741001789817	-0.0046539307	
1741001789818	0.004043579	
1741001789819	0.004272461	
1741001789820	2.2888184E-4	
1741001789821	-0.0022125244	
1741001789822	6.1035156E-4	
1741001789823	0.0030517578	
1741001789824	0.0018310547	
1741001789825	-6.866455E-4	
1741001789826	-0.0045776367	
1741001789827	-0.0025177002	
1741001789828	-0.0023651123	
1741001789829	-0.001449585	
1741001789830	-0.0016021729	
1741001789831	-8.392334E-4	
1741001789832	0.0075531006	
1741001789833	0.009918213	
1741001789834	0.0060272217	
1741001789835	0.0036621094	
1741001789836	0.0012207031	
1741001789837	0.0025177002	
1741001789838	2.2888184E-4	
1741001789839	-0.005874634	
1741001789840	3.0517578E-4	
1741001789841	6.1035156E-4	
1741001789842	-0.004196167	
1741001789843	5.340576E-4	
1741001789844	-0.0029754639	
1741001789845	-0.0018310547	
1741001789846	0.0017547607	
1741001789847	-0.0032043457	
1741001789848	6.1035156E-4	
1741001789849	0.0048828125	
1741001789850	-0.0029754639	
1741001789851	-0.008392334	
1741001789852	-0.0045776367	
1741001789853	-3.0517578E-4	
1741001789854	-0.0019073486	
1741001789855	-9.1552734E-4	
1741001789856	0.005874634	
1741001789857	0.0064849854	
1741001789858	0.0035095215	
1741001789859	0.0030517578	
1741001789860	0.0025939941	
1741001789861	0.0017547607	
1741001789862	3.0517578E-4	
1741001789863	-0.0024414062	
1741001789864	-0.0034332275	
1741001789865	-0.0075531006	
1741001789866	-0.0064849854	
1741001789867	-0.002670288	
1741001789868	0.0022888184	
1741001789869	0.009613037	
1741001789870	0.0048828125	
1741001789871	-0.0022888184	
1741001789872	-0.0090789795	
1741001789873	-0.0132751465	
1741001789874	-0.0048828125	
1741001789875	-0.0010681152	
1741001789876	-0.002822876	
1741001789877	0.0022888184	
1741001789878	0.009841919	
1741001789879	0.004425049	
1741001789880	0.00289917	
1741001789881	0.0024414062	
1741001789882	-0.008239746	
1741001789883	-0.0020599365	
1741001789884	0.008773804	
1741001789885	0.009689331	
1741001789886	0.0066375732	
1741001789887	-7.6293945E-4	
1741001789888	0.0031280518	
1741001789889	0.0029754639	
1741001789890	-0.004196167	
1741001789891	-0.0021362305	
1741001789892	-0.001449585	
1741001789893	-0.0050354004	
1741001789894	-0.0064086914	
1741001789895	0.0012207031	
1741001789896	0.008010864	
1741001789897	-0.0023651123	
1741001789898	-0.0012969971	
1741001789899	0.0046539307	
1741001789900	-0.005493164	
1741001789901	-0.0059509277	
1741001789902	0.001373291	
1741001789903	-0.0024414062	
1741001789904	0.0016784668	
1741001789905	0.0045776367	
1741001789906	-6.866455E-4	
1741001789907	-0.00289917	
1741001789908	7.6293945E-5	
1741001789909	0.0035858154	
1741001789910	0.0034332275	
1741001789911	0.0034332275	
1741001789912	0.0066375732	
1741001789913	0.004425049	
1741001789914	1.5258789E-4	
1741001789915	6.1035156E-4	
1741001789916	9.918213E-4	
1741001789917	0.0018310547	
1741001789918	5.340576E-4	
1741001789919	-0.0016021729	
1741001789920	-0.0012969971	
1741001789921	-5.340576E-4	
1741001789922	-0.002746582	
1741001789923	-0.010299683	
1741001789924	-0.008392334	
1741001789925	0.0023651123	
1741001789926	0.0012207031	
1741001789927	5.340576E-4	
1741001789928	0.0024414062	
1741001789929	0.0023651123	
1741001789930	5.340576E-4	
1741001789931	-0.0032043457	
1741001789932	-0.002822876	
1741001789933	-0.0035095215	
1741001789934	-0.0024414062	
1741001789935	3.8146973E-4	
1741001789936	5.340576E-4	
1741001789937	0.0030517578	
1741001789938	0.002670288	
1741001789939	-1.5258789E-4	
1741001789940	-0.0017547607	
1741001789941	-0.0029754639	
1741001789942	-0.0016021729	
1741001789943	-0.0021362305	
1741001789944	-0.0015258789	
1741001789945	-5.340576E-4	
1741001789946	4.5776367E-4	
1741001789947	0.0045776367	
1741001789948	0.0022888184	
1741001789949	0.0032043457	
1741001789950	0.0029754639	
1741001789951	0.0018310547	
1741001789952	0.0035858154	
1741001789953	-0.0019073486	
1741001789954	-0.0049591064	
1741001789955	0.002670288	
1741001789956	0.005645752	
1741001789957	-1.5258789E-4	
1741001789958	-0.0022888184	
1741001789959	-3.8146973E-4	
1741001789960	0.0029754639	
1741001789961	0.0019836426	
1741001789962	3.8146973E-4	
1741001789963	7.6293945E-4	
1741001789964	-0.0019836426	
1741001789965	-0.004348755	
1741001789966	-0.002822876	
1741001789967	0.0020599365	
1741001789968	0.0	
1741001789969	-0.002822876	
1741001789970	-0.0021362305	
1741001789971	3.0517578E-4	
1741001789972	0.0033569336	
1741001789973	0.001449585	
1741001789974	0.005645752	
1741001789975	0.0036621094	
1741001789976	-0.0038909912	
1741001789977	-0.002746582	
1741001789978	-0.0032806396	
1741001789979	-0.003967285	
1741001789980	-0.002822876	
1741001789981	-1.5258789E-4	
1741001789982	0.002670288	
1741001789983	0.002670288	
1741001789984	0.0038146973	
1741001789985	-0.0011444092	
1741001789986	4.5776367E-4	
1741001789987	0.004501343	
1741001789988	6.1035156E-4	
1741001789989	7.6293945E-4	
1741001789990	-0.0015258789	
1741001789991	-0.004119873	
1741001789992	-0.0065612793	
1741001789993	-0.0061035156	
1741001789994	0.0022888184	
1741001789995	0.007019043	
1741001789996	0.006942749	
1741001789997	0.0034332275	
1741001789998	0.0024414062	
1741001789999	-0.0022125244	
1741001790000	-0.0045776367	
1741001790001	-0.0032043457	
1741001790002	-0.005493164	
1741001790003	-0.0031280518	
1741001790004	0.0035095215	
1741001790005	0.004196167	
1741001790006	9.918213E-4	
1741001790007	-0.0025177002	
1741001790008	-6.1035156E-4	
1741001790009	0.0031280518	
1741001790010	-1.5258789E-4	
1741001790011	0.0022125244	
1741001790012	0.007247925	
1741001790013	-0.0077056885	
1741001790014	-0.0060272217	
1741001790015	0.0074768066	
1741001790016	-0.001373291	
1741001790017	-1.5258789E-4	
1741001790018	0.0037384033	
1741001790019	0.001449585	
1741001790020	0.0022888184	
1741001790021	-0.0022888184	
1741001790022	-7.6293945E-4	
1741001790023	0.005493164	
1741001790024	0.005569458	
1741001790025	0.0033569336	
1741001790026	-0.004196167	
1741001790027	-0.011978149	
1741001790028	-0.0046539307	
1741001790029	0.0064086914	
1741001790030	0.008621216	
1741001790031	-0.0036621094	
1741001790032	-0.008850098	
1741001790033	-0.002746582	
1741001790034	0.0023651123	
1741001790035	3.8146973E-4	
1741001790036	-0.004272461	
1741001790037	0.001373291	
1741001790038	1.5258789E-4	
1741001790039	-0.0010681152	
1741001790040	0.0012969971	
1741001790041	-0.0033569336	
1741001790042	-6.866455E-4	
1741001790043	-1.5258789E-4	
1741001790044	0.0064849854	
1741001790045	0.0049591064	
1741001790046	-0.0024414062	
1741001790047	-0.001373291	
1741001790048	-0.004043579	
1741001790049	-0.0012207031	
1741001790050	-9.1552734E-4	
1741001790051	-0.0017547607	
1741001790052	0.0022125244	
1741001790053	-0.0012969971	
1741001790054	-7.6293945E-5	
1741001790055	-3.0517578E-4	
1741001790056	-0.0015258789	
1741001790057	0.0031280518	
1741001790058	0.005645752	
1741001790059	0.009689331	
1741001790060	0.0051116943	
1741001790061	-0.001449585	
1741001790062	0.0060272217	
1741001790063	0.0034332275	
1741001790064	-0.002822876	
1741001790065	-0.0023651123	
1741001790066	-9.918213E-4	
1741001790067	0.0018310547	
1741001790068	-0.0019073486	
1741001790069	-0.00289917	
1741001790070	-6.866455E-4	
1741001790071	-3.8146973E-4	
1741001790072	2.2888184E-4	
1741001790073	-0.004043579	
1741001790074	-0.0010681152	
1741001790075	0.0033569336	
1741001790076	-0.0017547607	
1741001790077	-0.005874634	
1741001790078	-0.0045776367	
1741001790079	-0.0048828125	
1741001790080	-0.00579834	
1741001790081	0.0020599365	
1741001790082	0.0032043457	
1741001790083	0.0021362305	
1741001790084	0.0051116943	
1741001790085	0.0025939941	
1741001790086	-0.0011444092	
1741001790087	-6.1035156E-4	
1741001790088	3.0517578E-4	
1741001790089	3.8146973E-4	
1741001790090	0.008010864	
1741001790091	0.006790161	
1741001790092	-0.006713867	
1741001790093	-0.0016784668	
1741001790094	-0.0011444092	
1741001790095	-0.0047302246	
1741001790096	0.001449585	
1741001790097	0.002822876	
1741001790098	0.0022888184	
1741001790099	7.6293945E-5	
1741001790100	1.5258789E-4	
1741001790101	-0.0060272217	
1741001790102	-0.005569458	
1741001790103	0.008773804	
1741001790104	0.0064849854	
1741001790105	-0.0023651123	
1741001790106	-3.8146973E-4	
1741001790107	-0.0018310547	
1741001790108	-0.0050354004	
1741001790109	-0.0022125244	
1741001790110	0.0020599365	
1741001790111	5.340576E-4	
1741001790112	5.340576E-4	
1741001790113	0.0046539307	
1741001790114	0.0076293945	
1741001790115	7.6293945E-5	
1741001790116	-0.009536743	
1741001790117	-0.0015258789	
1741001790118	-0.0025939941	
1741001790119	-0.005874634	
1741001790120	-0.0051116943	
1741001790121	-0.0032806396	
1741001790122	0.008544922	
1741001790123	0.0032806396	
1741001790124	-7.6293945E-5	
1741001790125	0.0073242188	
1741001790126	0.004501343	
1741001790127	-9.918213E-4	
1741001790128	-1.5258789E-4	
1741001790129	0.0025939941	
1741001790130	-9.1552734E-4	
1741001790131	-0.0016784668	
1741001790132	0.0019836426	
1741001790133	-7.6293945E-4	
1741001790134	-0.0015258789	
1741001790135	0.001373291	
1741001790136	0.002746582	
1741001790137	-0.003967285	
1741001790138	0.0025177002	
1741001790139	0.011138916	
1741001790140	-0.0018310547	
1741001790141	-0.0022125244	
1741001790142	-1.5258789E-4	
1741001790143	-0.004425049	
1741001790144	-0.0038146973	
1741001790145	-0.001449585	
1741001790146	9.1552734E-4	
1741001790147	-0.0030517578	
1741001790148	-0.0038909912	
1741001790149	0.0010681152	
1741001790150	0.005493164	
1741001790151	0.005340576	
1741001790152	0.0016021729	
1741001790153	7.6293945E-4	
1741001790154	-8.392334E-4	
1741001790155	-0.0033569336	
1741001790156	-0.00579834	
1741001790157	-0.0051879883	
1741001790158	-0.008468628	
1741001790159	-0.0074768066	
1741001790160	0.004501343	
1741001790161	0.0022125244	
1741001790162	-0.0019073486	
1741001790163	0.003967285	
1741001790164	6.1035156E-4	
1741001790165	-7.6293945E-5	
1741001790166	0.0025939941	
1741001790167	0.0011444092	
1741001790168	0.005340576	
1741001790169	0.0104522705	
1741001790170	0.013046265	
1741001790171	0.0025939941	
1741001790172	-0.0077819824	
1741001790173	0.0046539307	
1741001790174	0.007247925	
1741001790175	-5.340576E-4	
1741001790176	-0.005569458	
1741001790177	-0.006790161	
1741001790178	-6.866455E-4	
1741001790179	0.0010681152	
1741001790180	0.004501343	
1741001790181	0.005493164	
1741001790182	-6.866455E-4	
1741001790183	-0.0019073486	
1741001790184	-0.0016021729	
1741001790185	-0.004272461	
1741001790186	-0.0019836426	
1741001790187	0.0022125244	
1741001790188	1.5258789E-4	
1741001790189	0.0012969971	
1741001790190	-0.0031280518	
1741001790191	-0.009613037	
1741001790192	-0.0060272217	
1741001790193	-0.0065612793	
1741001790194	-0.001449585	
1741001790195	0.0019836426	
1741001790196	-0.0045776367	
1741001790197	-0.00869751	
1741001790198	-0.008468628	
1741001790199	-0.002670288	
1741001790200	-0.0010681152	
1741001790201	7.6293945E-5	
1741001790202	0.0059509277	
1741001790203	0.004348755	
1741001790204	6.866455E-4	
1741001790205	5.340576E-4	
1741001790206	0.0025177002	
1741001790207	0.007019043	
1741001790208	0.006866455	
1741001790209	0.0062561035	
1741001790210	0.001373291	
1741001790211	-2.2888184E-4	
1741001790212	0.004272461	
1741001790213	6.866455E-4	
1741001790214	0.0024414062	
1741001790215	0.0065612793	
1741001790216	0.006790161	
1741001790217	0.012893677	
1741001790218	0.004272461	
1741001790219	-0.0032043457	
1741001790220	0.0025939941	
1741001790221	-3.8146973E-4	
1741001790222	0.0048828125	
1741001790223	7.6293945E-4	
1741001790224	-0.0036621094	
1741001790225	-0.0022125244	
1741001790226	-0.0064849854	
1741001790227	3.0517578E-4	
1741001790228	-8.392334E-4	
1741001790229	-0.0062561035	
1741001790230	-0.006866455	
1741001790231	-0.005874634	
1741001790232	-7.6293945E-5	
1741001790233	9.918213E-4	
1741001790234	-0.004272461	
1741001790235	-0.0051116943	
1741001790236	-0.007247925	
1741001790237	-0.006713867	
1741001790238	-0.0062561035	
1741001790239	-0.0064086914	
1741001790240	-0.0035858154	
1741001790241	-0.004272461	
1741001790242	5.340576E-4	
1741001790243	0.0063323975	
1741001790244	0.009307861	
1741001790245	0.009841919	
1741001790246	0.0033569336	
1741001790247	1.5258789E-4	
1741001790248	0.0048828125	
1741001790249	0.00289917	
1741001790250	0.0035095215	
1741001790251	0.0019836426	
1741001790252	-9.1552734E-4	
1741001790253	0.0025177002	
1741001790254	-0.0023651123	
1741001790255	-0.0038146973	
1741001790256	0.00289917	
1741001790257	0.009231567	
1741001790258	0.0076293945	
1741001790259	-0.0036621094	
1741001790260	-0.006790161	
1741001790261	-0.00541687	
1741001790262	-0.0019073486	
1741001790263	0.0031280518	
1741001790264	-0.0022888184	
1741001790265	-0.004272461	
1741001790266	0.0012207031	
1741001790267	0.0065612793	
1741001790268	0.010147095	
1741001790269	0.00793457	
1741001790270	0.010681152	
1741001790271	0.004119873	
1741001790272	-0.008544922	
1741001790273	-0.005645752	
1741001790274	-0.007171631	
1741001790275	-0.0073242188	
1741001790276	-0.0047302246	
1741001790277	-0.0047302246	
1741001790278	0.002822876	
1741001790279	0.010223389	
1741001790280	0.0074768066	
1741001790281	-0.003967285	
1741001790282	-0.009765625	
1741001790283	-0.008392334	
1741001790284	-0.005569458	
1741001790285	0.0017547607	
1741001790286	-0.0022125244	
1741001790287	-0.00831604	
1741001790288	-0.001449585	
1741001790289	-0.0020599365	
1741001790290	6.1035156E-4	
1741001790291	0.0019836426	
1741001790292	-9.1552734E-4	
1741001790293	0.0073242188	
1741001790294	0.004348755	
1741001790295	7.6293945E-5	
1741001790296	-0.0034332275	
1741001790297	0.0019836426	
1741001790298	0.010147095	
1741001790299	0.013885498	
1741001790300	0.008010864	
1741001790301	-0.002822876	
1741001790302	-0.008163452	
1741001790303	-0.013580322	
1741001790304	-0.007858276	
1741001790305	-7.6293945E-4	
1741001790306	-9.918213E-4	
1741001790307	0.0010681152	
1741001790308	3.0517578E-4	
1741001790309	-0.0019836426	
1741001790310	-0.00289917	
1741001790311	-0.004425049	
1741001790312	0.0022888184	
1741001790313	0.01159668	
1741001790314	0.012130737	
1741001790315	0.005264282	
1741001790316	-1.5258789E-4	
1741001790317	-0.0012969971	
1741001790318	-0.004501343	
1741001790319	-0.005493164	
1741001790320	-0.014038086	
1741001790321	-0.011444092	
1741001790322	3.0517578E-4	
1741001790323	0.0075531006	
1741001790324	0.02067566	
1741001790325	0.019302368	
1741001790326	0.013046265	
1741001790327	0.010223389	
1741001790328	-0.004043579	
1741001790329	-0.0051879883	
1741001790330	0.012207031	
1741001790331	0.020599365	
1741001790332	0.019378662	
1741001790333	0.015335083	
1741001790334	-0.0029754639	
1741001790335	-0.013580322	
1741001790336	0.0023651123	
1741001790337	-0.0048828125	
1741001790338	-0.018844604	
1741001790339	-0.01373291	
1741001790340	-0.01914978	
1741001790341	-0.01663208	
1741001790342	-0.010147095	
1741001790343	-0.012969971	
1741001790344	-0.01663208	
1741001790345	-0.019073486	
1741001790346	-0.020065308	
1741001790347	-0.011062622	
1741001790348	-0.0022888184	
1741001790349	0.0016021729	
1741001790350	0.009384155	
1741001790351	0.009918213	
1741001790352	0.0036621094	
1741001790353	0.004272461	
1741001790354	0.0074768066	
1741001790355	0.014343262	
1741001790356	0.017089844	
1741001790357	0.020904541	
1741001790358	0.016784668	
1741001790359	-0.005722046	
1741001790360	-0.004272461	
1741001790361	4.5776367E-4	
1741001790362	0.01121521	
1741001790363	0.048980713	
1741001790364	0.036621094	
1741001790365	-0.019226074	
1741001790366	-0.018234253	
1741001790367	-0.014419556	
1741001790368	-0.038757324	
1741001790369	-0.008239746	
1741001790370	-0.005645752	
1741001790371	-0.021896362	
1741001790372	-0.0029754639	
1741001790373	-0.011978149	
1741001790374	-0.00579834	
1741001790375	-0.0032806396	
1741001790376	-0.0011444092	
1741001790377	0.016937256	
1741001790378	0.01449585	
1741001790379	0.019836426	
1741001790380	0.023422241	
1741001790381	0.015411377	
1741001790382	-0.015411377	
1741001790383	-0.055923462	
1741001790384	-0.011978149	
1741001790385	0.026855469	
1741001790386	0.0022125244	
1741001790387	-0.043258667	
1741001790388	-0.06317139	
1741001790389	-0.006866455	
1741001790390	0.019836426	
1741001790391	0.0019836426	
1741001790392	0.0289917	
1741001790393	0.03227234	
1741001790394	0.023956299	
1741001790395	0.026626587	
1741001790396	0.012893677	
1741001790397	0.035858154	
1741001790398	0.03677368	
1741001790399	0.002822876	
1741001790400	0.002746582	
1741001790401	0.006713867	
1741001790402	0.008010864	
1741001790403	-0.01411438	
1741001790404	-0.013198853	
1741001790405	0.0289917	
1741001790406	0.002822876	
1741001790407	-0.032043457	
1741001790408	-0.029220581	
1741001790409	-0.013046265	
1741001790410	-0.007019043	
1741001790411	-0.027618408	
1741001790412	-0.040740967	
1741001790413	-0.06248474	
1741001790414	0.0062561035	
1741001790415	0.12084961	
1741001790416	0.05645752	
1741001790417	0.0059509277	
1741001790418	0.05455017	
1741001790419	0.03753662	
1741001790420	0.016021729	
1741001790421	-0.03501892	
1741001790422	-0.10406494	
1741001790423	-0.13969421	
1741001790424	-0.12878418	
1741001790425	-0.021438599	
1741001790426	0.032806396	
1741001790427	0.0118255615	
1741001790428	0.012969971	
1741001790429	-0.014877319	
1741001790430	-0.039978027	
1741001790431	-0.0022888184	
1741001790432	0.05355835	
1741001790433	0.06271362	
1741001790434	0.06637573	
1741001790435	0.06904602	
1741001790436	0.002670288	
1741001790437	-0.042419434	
1741001790438	-0.037994385	
1741001790439	-0.048599243	
1741001790440	-0.04676819	
1741001790441	0.0022888184	
1741001790442	0.08834839	
1741001790443	0.08041382	
1741001790444	0.08270264	
1741001790445	0.17341614	
1741001790446	0.079574585	
1741001790447	-0.016708374	
1741001790448	-0.0064849854	
1741001790449	-0.053024292	
1741001790450	-0.008468628	
1741001790451	-0.0018310547	
1741001790452	-0.07652283	
1741001790453	-0.06492615	
1741001790454	-0.049438477	
1741001790455	-0.046081543	
1741001790456	-0.053710938	
1741001790457	-0.03677368	
1741001790458	-0.006942749	
1741001790459	-0.029067993	
1741001790460	-0.00793457	
1741001790461	0.02128601	
1741001790462	0.001373291	
1741001790463	-0.013427734	
1741001790464	-0.062942505	
1741001790465	-0.06378174	
1741001790466	0.034484863	
1741001790467	0.06668091	
1741001790468	0.053482056	
1741001790469	0.08102417	
1741001790470	0.015716553	
1741001790471	-0.07362366	
1741001790472	-0.05836487	
1741001790473	-0.012588501	
1741001790474	0.02418518	
1741001790475	0.04196167	
1741001790476	0.052642822	
1741001790477	0.0466156	
1741001790478	0.04005432	
1741001790479	0.018997192	
1741001790480	-0.051727295	
1741001790481	-0.094833374	
1741001790482	-0.039138794	
1741001790483	0.0146484375	
1741001790484	0.023345947	
1741001790485	0.05760193	
1741001790486	0.049362183	
1741001790487	0.018692017	
1741001790488	0.0066375732	
1741001790489	-0.013122559	
1741001790490	0.011138916	
1741001790491	0.0032043457	
1741001790492	-0.032348633	
1741001790493	-0.0065612793	
1741001790494	0.0048828125	
1741001790495	-0.00869751	
1741001790496	-0.010910034	
1741001790497	-1.5258789E-4	
1741001790498	0.005340576	
1741001790499	-1.5258789E-4	
1741001790500	-1.5258789E-4	
1741001790501	-0.018463135	
1741001790502	-0.010223389	
1741001790503	0.02243042	
1741001790504	0.01914978	
1741001790505	0.0037384033	
1741001790506	-0.02670288	
1741001790507	-0.05378723	
1741001790508	-0.022201538	
1741001790509	0.010681152	
1741001790510	-0.016174316	
1741001790511	-0.026397705	
1741001790512	-0.015640259	
1741001790513	-0.049209595	
1741001790514	-0.071258545	
1741001790515	-0.028457642	
1741001790516	0.06668091	
1741001790517	0.11833191	
1741001790518	0.09086609	
1741001790519	0.071258545	
1741001790520	0.062561035	
1741001790521	0.02571106	
1741001790522	-0.015487671	
1741001790523	-0.04295349	
1741001790524	-0.052947998	
1741001790525	-0.04989624	
1741001790526	-0.08850098	
1741001790527	-0.09414673	
1741001790528	-0.02532959	
1741001790529	-0.010147095	
1741001790530	0.037078857	
1741001790531	0.14328003	
1741001790532	0.14137268	
1741001790533	0.078048706	
1741001790534	0.03753662	
1741001790535	-0.009460449	
1741001790536	-0.097351074	
1741001790537	-0.1410675	
1741001790538	-0.046691895	
1741001790539	0.030059814	
1741001790540	0.007095337	
1741001790541	0.0015258789	
1741001790542	0.009002686	
1741001790543	-0.02128601	
1741001790544	-0.04875183	
1741001790545	-0.023498535	
1741001790546	0.01159668	
1741001790547	0.013885498	
1741001790548	0.004272461	
1741001790549	0.0059509277	
1741001790550	0.02067566	
1741001790551	0.01838684	
1741001790552	0.01159668	
1741001790553	-0.0146484375	
1741001790554	-0.0020599365	
1741001790555	0.041275024	
1741001790556	0.014953613	
1741001790557	7.6293945E-4	
1741001790558	-0.0015258789	
1741001790559	-0.023727417	
1741001790560	-0.010528564	
1741001790561	0.02243042	
1741001790562	0.041122437	
1741001790563	2.2888184E-4	
1741001790564	-0.04196167	
1741001790565	-0.020217896	
1741001790566	0.024642944	
1741001790567	0.03677368	
1741001790568	-0.007095337	
1741001790569	-0.044631958	
1741001790570	-0.0340271	
1741001790571	-0.0021362305	
1741001790572	0.0022125244	
1741001790573	-0.026550293	
1741001790574	-0.019378662	
1741001790575	0.032043457	
1741001790576	0.027694702	
1741001790577	-0.020828247	
1741001790578	0.020751953	
1741001790579	0.0617218	
1741001790580	0.0146484375	
1741001790581	0.00793457	
1741001790582	0.026779175	
1741001790583	0.031051636	
1741001790584	0.0132751465	
1741001790585	-0.0025939941	
1741001790586	0.036087036	
1741001790587	0.0012207031	
1741001790588	-0.10284424	
1741001790589	-0.13687134	
1741001790590	-0.11680603	
1741001790591	-0.042648315	
1741001790592	0.037078857	
1741001790593	0.048980713	
1741001790594	0.02784729	
1741001790595	0.021591187	
1741001790596	0.03211975	
1741001790597	0.041046143	
1741001790598	0.028381348	
1741001790599	0.00831604	
1741001790600	0.022201538	
1741001790601	-0.016708374	
1741001790602	-0.068740845	
1741001790603	-0.018920898	
1741001790604	0.011978149	
1741001790605	0.00541687	
1741001790606	0.012359619	
1741001790607	-0.02494812	
1741001790608	-0.07522583	
1741001790609	-0.043563843	
1741001790610	-0.016403198	
1741001790611	-0.027542114	
1741001790612	0.1373291	
1741001790613	0.2445221	
1741001790614	0.02960205	
1741001790615	8.392334E-4	
1741001790616	0.17341614	
1741001790617	0.0693512	
1741001790618	-0.09780884	
1741001790619	-0.07583618	
1741001790620	-0.0076293945	
1741001790621	0.025482178	
1741001790622	-0.018844604	
1741001790623	-0.13038635	
1741001790624	-0.11291504	
1741001790625	-0.03227234	
1741001790626	-0.025100708	
1741001790627	-0.00793457	
1741001790628	-0.03288269	
1741001790629	-0.05218506	
1741001790630	-0.03593445	
1741001790631	-0.03135681	
1741001790632	-0.04043579	
1741001790633	-0.07759094	
1741001790634	-0.035324097	
1741001790635	0.044708252	
1741001790636	0.056228638	
1741001790637	0.041427612	
1741001790638	0.06652832	
1741001790639	0.107803345	
1741001790640	0.07110596	
1741001790641	0.0038909912	
1741001790642	-0.04333496	
1741001790643	-0.038146973	
1741001790644	0.004501343	
1741001790645	-0.0016784668	
1741001790646	0.017852783	
1741001790647	0.03517151	
1741001790648	0.042800903	
1741001790649	0.07896423	
1741001790650	-0.01083374	
1741001790651	-0.10055542	
1741001790652	-0.06614685	
1741001790653	-0.047531128	
1741001790654	0.05317688	
1741001790655	0.19813538	
1741001790656	0.10246277	
1741001790657	-0.025024414	
1741001790658	0.039215088	
1741001790659	0.0743103	
1741001790660	-0.0037384033	
1741001790661	-0.06210327	
1741001790662	-0.06484985	
1741001790663	-0.08163452	
1741001790664	-0.072784424	
1741001790665	-0.065841675	
1741001790666	-0.08026123	
1741001790667	-0.033111572	
1741001790668	0.0104522705	
1741001790669	0.016479492	
1741001790670	0.017242432	
1741001790671	0.012664795	
1741001790672	0.019454956	
1741001790673	0.013656616	
1741001790674	0.0019073486	
1741001790675	-0.034103394	
1741001790676	-0.0592041	
1741001790677	-0.03189087	
1741001790678	-0.07751465	
1741001790679	-0.1713562	
1741001790680	-0.19203186	
1741001790681	-0.044784546	
1741001790682	0.1525116	
1741001790683	0.22529602	
1741001790684	0.27305603	
1741001790685	0.18455505	
1741001790686	0.022964478	
1741001790687	0.07926941	
1741001790688	0.08956909	
1741001790689	0.039367676	
1741001790690	0.06225586	
1741001790691	-0.0073242188	
1741001790692	-0.022277832	
1741001790693	-0.04714966	
1741001790694	-0.11314392	
1741001790695	-0.06919861	
1741001790696	-0.054473877	
1741001790697	-0.07316589	
1741001790698	-0.14640808	
1741001790699	-0.2027893	
1741001790700	-0.094680786	
1741001790701	-0.02784729	
1741001790702	0.0015258789	
1741001790703	0.07545471	
1741001790704	0.09429932	
1741001790705	0.075302124	
1741001790706	-0.0048828125	
1741001790707	-0.06767273	
1741001790708	-0.080718994	
1741001790709	-0.11253357	
1741001790710	-0.17875671	
1741001790711	-0.16975403	
1741001790712	0.095062256	
1741001790713	0.24353027	
1741001790714	0.111312866	
1741001790715	0.16365051	
1741001790716	0.38604736	
1741001790717	0.3704071	
1741001790718	0.19927979	
1741001790719	0.06645203	
1741001790720	-0.10772705	
1741001790721	-0.10971069	
1741001790722	-0.06263733	
1741001790723	-0.15167236	
1741001790724	-0.121154785	
1741001790725	-0.09674072	
1741001790726	-0.05897522	
1741001790727	0.019760132	
1741001790728	-0.08911133	
1741001790729	-0.17295837	
1741001790730	-0.11779785	
1741001790731	-0.06248474	
1741001790732	-0.029678345	
1741001790733	-0.031814575	
1741001790734	-0.0440979	
1741001790735	-0.14221191	
1741001790736	-0.15281677	
1741001790737	0.055541992	
1741001790738	0.086135864	
1741001790739	0.06729126	
1741001790740	0.11657715	
1741001790741	0.07171631	
1741001790742	0.18241882	
1741001790743	0.18821716	
1741001790744	0.033569336	
1741001790745	-0.12207031	
1741001790746	-0.29037476	
1741001790747	-0.20088196	
1741001790748	-0.06820679	
1741001790749	0.12939453	
1741001790750	0.36071777	
1741001790751	0.2721405	
1741001790752	0.11520386	
1741001790753	0.0073242188	
1741001790754	-0.085754395	
1741001790755	-0.027160645	
1741001790756	0.07133484	
1741001790757	0.028457642	
1741001790758	0.1146698	
1741001790759	0.30548096	
1741001790760	0.12008667	
1741001790761	-0.20629883	
1741001790762	-0.3012085	
1741001790763	-0.20401001	
1741001790764	-0.054855347	
1741001790765	-0.06889343	
1741001790766	-0.15258789	
1741001790767	-0.1448822	
1741001790768	-0.11154175	
1741001790769	-3.0517578E-4	
1741001790770	0.11695862	
1741001790771	0.08621216	
1741001790772	0.05455017	
1741001790773	-0.008087158	
1741001790774	-0.104599	
1741001790775	-0.07133484	
1741001790776	-0.075149536	
1741001790777	-0.07537842	
1741001790778	0.0064086914	
1741001790779	0.030975342	
1741001790780	-0.028305054	
1741001790781	-0.11276245	
1741001790782	-0.030593872	
1741001790783	0.12161255	
1741001790784	0.181427	
1741001790785	0.086364746	
1741001790786	-0.16281128	
1741001790787	-0.17097473	
1741001790788	0.0012207031	
1741001790789	0.021514893	
1741001790790	0.1423645	
1741001790791	0.3263855	
1741001790792	0.28404236	
1741001790793	0.2997589	
1741001790794	0.38368225	
1741001790795	0.08804321	
1741001790796	-0.16799927	
1741001790797	-0.05432129	
1741001790798	-0.037460327	
1741001790799	-0.036239624	
1741001790800	-0.051498413	
1741001790801	-0.14030457	
1741001790802	-0.06500244	
1741001790803	0.013427734	
1741001790804	-0.06881714	
1741001790805	-0.23513794	
1741001790806	-0.2760315	
1741001790807	-0.19477844	
1741001790808	-0.17837524	
1741001790809	-0.09063721	
1741001790810	0.05958557	
1741001790811	0.13320923	
1741001790812	0.0032043457	
1741001790813	-0.100479126	
1741001790814	-0.02822876	
1741001790815	-0.08705139	
1741001790816	-0.030136108	
1741001790817	0.06568909	
1741001790818	0.036849976	
1741001790819	0.1789856	
1741001790820	0.13580322	
1741001790821	-0.07606506	
1741001790822	-0.027389526	
1741001790823	0.034866333	
1741001790824	0.055618286	
1741001790825	0.08804321	
1741001790826	0.061264038	
1741001790827	0.06263733	
1741001790828	0.017318726	
1741001790829	-0.04196167	
1741001790830	-0.02357483	
1741001790831	-0.018997192	
1741001790832	-0.040664673	
1741001790833	-0.048217773	
1741001790834	-0.020370483	
1741001790835	0.12054443	
1741001790836	0.28182983	
1741001790837	0.25260925	
1741001790838	0.013656616	
1741001790839	-0.10429382	
1741001790840	0.022125244	
1741001790841	-0.004501343	
1741001790842	-0.075683594	
1741001790843	0.02822876	
1741001790844	0.016784668	
1741001790845	-0.08415222	
1741001790846	-0.14434814	
1741001790847	-0.14503479	
1741001790848	-0.12435913	
1741001790849	-0.09857178	
1741001790850	-0.018463135	
1741001790851	0.004425049	
1741001790852	0.0032806396	
1741001790853	0.028533936	
1741001790854	0.021438599	
1741001790855	0.0025939941	
1741001790856	-0.014038086	
1741001790857	0.0104522705	
1741001790858	0.024642944	
1741001790859	-0.011138916	
1741001790860	-0.0050354004	
1741001790861	0.002746582	
1741001790862	-0.010528564	
1741001790863	0.002670288	
1741001790864	0.0051879883	
1741001790865	0.008010864	
1741001790866	0.011367798	
1741001790867	0.006713867	
1741001790868	0.013809204	
1741001790869	0.015411377	
1741001790870	0.014343262	
1741001790871	0.015106201	
1741001790872	0.012130737	
1741001790873	0.013961792	
1741001790874	0.009613037	
1741001790875	0.0077056885	
1741001790876	0.018692017	
1741001790877	0.015640259	
1741001790878	0.009231567	
1741001790879	0.0049591064	
1741001790880	0.004501343	
1741001790881	0.0036621094	
1741001790882	-0.0051116943	
1741001790883	-4.5776367E-4	
1741001790884	3.8146973E-4	
1741001790885	-0.0023651123	
1741001790886	-0.00869751	
1741001790887	-0.0061798096	
1741001790888	-0.002746582	
1741001790889	-0.004501343	
1741001790890	-9.1552734E-4	
1741001790891	-0.0032806396	
1741001790892	-0.004501343	
1741001790893	-0.004348755	
1741001790894	-0.006713867	
1741001790895	-0.009994507	
1741001790896	-0.010299683	
1741001790897	-0.005645752	
1741001790898	-0.0064086914	
1741001790899	-0.009994507	
1741001790900	-0.0073242188	
1741001790901	-0.008239746	
1741001790902	-0.025024414	
1741001790903	-0.053253174	
1741001790904	-0.04798889	
1741001790905	-0.0060272217	
1741001790906	0.07232666	
1741001790907	0.13504028	
1741001790908	0.04371643	
1741001790909	-0.014801025	
1741001790910	0.026016235	
1741001790911	-0.0074005127	
1741001790912	-0.013580322	
1741001790913	-0.013122559	
1741001790914	-0.022659302	
1741001790915	-0.0065612793	
1741001790916	-0.022506714	
1741001790917	-0.014419556	
1741001790918	-0.009002686	
1741001790919	-0.009994507	
1741001790920	0.0011444092	
1741001790921	-0.009460449	
1741001790922	-9.918213E-4	
1741001790923	0.007019043	
1741001790924	0.0016021729	
1741001790925	0.0049591064	
1741001790926	-0.0016021729	
1741001790927	-0.0049591064	
1741001790928	-0.001449585	
1741001790929	9.918213E-4	
1741001790930	0.0045776367	
1741001790931	0.002746582	
1741001790932	-9.1552734E-4	
1741001790933	-0.001449585	
1741001790934	-0.0023651123	
1741001790935	0.001449585	
1741001790936	0.0023651123	
1741001790937	9.1552734E-4	
1741001790938	-0.0037384033	
1741001790939	-0.0074005127	
1741001790940	-2.2888184E-4	
1741001790941	0.004272461	
1741001790942	0.0012969971	
1741001790943	0.002746582	
1741001790944	9.918213E-4	
1741001790945	0.00793457	
1741001790946	0.009765625	
1741001790947	0.0061798096	
1741001790948	-0.002670288	
1741001790949	-0.005722046	
1741001790950	0.0012207031	
1741001790951	-4.5776367E-4	
1741001790952	-9.1552734E-4	
1741001790953	0.0061798096	
1741001790954	0.010910034	
1741001790955	0.0038146973	
1741001790956	0.0061035156	
1741001790957	0.0035858154	
1741001790958	-0.006942749	
1741001790959	-0.00289917	
1741001790960	-0.007095337	
1741001790961	-0.011672974	
1741001790962	-0.0031280518	
1741001790963	-0.0018310547	
1741001790964	-0.0021362305	
1741001790965	0.0033569336	
1741001790966	0.005645752	
1741001790967	-0.003967285	
1741001790968	-0.002822876	
1741001790969	0.0035095215	
1741001790970	0.0012969971	
1741001790971	-0.0031280518	
1741001790972	-0.013961792	
1741001790973	-0.011367798	
1741001790974	-0.006790161	
1741001790975	-0.012893677	
1741001790976	-0.0074768066	
1741001790977	-6.866455E-4	
1741001790978	0.0048828125	
1741001790979	0.008239746	
1741001790980	2.2888184E-4	
1741001790981	0.0037384033	
1741001790982	0.011749268	
1741001790983	0.014266968	
1741001790984	0.01838684	
1741001790985	0.017318726	
1741001790986	0.0132751465	
1741001790987	-4.5776367E-4	
1741001790988	-0.0011444092	
1741001790989	3.0517578E-4	
1741001790990	-0.014801025	
1741001790991	-0.017318726	
1741001790992	-0.022354126	
1741001790993	-0.022354126	
1741001790994	-0.006790161	
1741001790995	-0.0051116943	
1741001790996	0.006942749	
1741001790997	0.010070801	
1741001790998	0.002746582	
1741001790999	-0.0019073486	
1741001791000	-0.012512207	
1741001791001	-0.009689331	
1741001791002	-0.0046539307	
1741001791003	-0.0036621094	
1741001791004	-6.866455E-4	
1741001791005	-0.0024414062	
1741001791006	-0.0046539307	
1741001791007	-0.011291504	
1741001791008	-0.0049591064	
1741001791009	0.007247925	
1741001791010	0.00541687	
1741001791011	0.014953613	
1741001791012	0.018692017	
1741001791013	0.017471313	
1741001791014	0.02822876	
1741001791015	0.020370483	
1741001791016	0.0073242188	
1741001791017	0.015258789	
1741001791018	0.01701355	
1741001791019	0.01876831	
1741001791020	0.016098022	
1741001791021	0.00831604	
1741001791022	0.013580322	
1741001791023	0.011291504	
1741001791024	-0.0022125244	
1741001791025	-0.007171631	
1741001791026	-0.010757446	
1741001791027	-0.020141602	
1741001791028	-0.026626587	
1741001791029	-0.030288696	
1741001791030	-0.027389526	
1741001791031	-0.015792847	
1741001791032	-0.012512207	
1741001791033	-0.010299683	
1741001791034	-0.009689331	
1741001791035	-0.008392334	
1741001791036	-7.6293945E-5	
1741001791037	-0.0034332275	
1741001791038	-0.010910034	
1741001791039	-0.015258789	
1741001791040	-0.019683838	
1741001791041	-0.016784668	
1741001791042	-0.008163452	
1741001791043	-0.0019836426	
1741001791044	-0.0022125244	
1741001791045	-5.340576E-4	
1741001791046	0.006790161	
1741001791047	0.005493164	
1741001791048	-0.0030517578	
1741001791049	3.8146973E-4	
1741001791050	0.008239746	
1741001791051	0.0066375732	
1741001791052	0.003967285	
1741001791053	0.004196167	
1741001791054	0.007019043	
1741001791055	0.007858276	
1741001791056	0.007858276	
1741001791057	0.0146484375	
1741001791058	0.018310547	
1741001791059	0.013809204	
1741001791060	0.013580322	
1741001791061	0.012969971	
1741001791062	0.012893677	
1741001791063	0.018844604	
1741001791064	0.013504028	
1741001791065	0.008773804	
1741001791066	0.009460449	
1741001791067	0.004348755	
1741001791068	-0.0019073486	
1741001791069	-0.00793457	
1741001791070	-0.00831604	
1741001791071	-0.0132751465	
1741001791072	-0.01449585	
1741001791073	-0.0049591064	
1741001791074	-0.0031280518	
1741001791075	-0.0012207031	
1741001791076	-0.0025939941	
1741001791077	-0.007247925	
1741001791078	-0.0061035156	
1741001791079	-0.0076293945	
1741001791080	-0.008087158	
1741001791081	-0.0048828125	
1741001791082	-0.0045776367	
1741001791083	-0.0066375732	
1741001791084	-0.0060272217	
1741001791085	-0.0047302246	
1741001791086	-0.007858276	
1741001791087	-0.0022125244	
1741001791088	0.0035858154	
1741001791089	-0.004348755	
1741001791090	-0.0012969971	
1741001791091	0.0025177002	
1741001791092	0.0016784668	
1741001791093	0.00579834	
1741001791094	0.0021362305	
1741001791095	0.0059509277	
1741001791096	0.0076293945	
1741001791097	0.0034332275	
1741001791098	0.0025939941	
1741001791099	8.392334E-4	
1741001791100	0.0051116943	
1741001791101	0.00289917	
1741001791102	-0.0020599365	
1741001791103	-0.0016021729	
1741001791104	-0.004196167	
1741001791105	0.0032043457	
1741001791106	0.0059509277	
1741001791107	0.0018310547	
1741001791108	0.0032806396	
1741001791109	-0.005493164	
1741001791110	-0.008544922	
1741001791111	-2.2888184E-4	
1741001791112	0.0037384033	
1741001791113	0.0046539307	
1741001791114	5.340576E-4	
1741001791115	-0.0033569336	
1741001791116	6.1035156E-4	
1741001791117	-0.0021362305	
1741001791118	-0.007095337	
1741001791119	-0.007858276	
1741001791120	-0.009231567	
1741001791121	-0.0064849854	
1741001791122	-8.392334E-4	
1741001791123	0.001449585	
1741001791124	-0.008850098	
1741001791125	-0.006866455	
1741001791126	0.004501343	
1741001791127	0.0025177002	
1741001791128	0.004348755	
1741001791129	0.004425049	
1741001791130	0.00793457	
1741001791131	0.009765625	
1741001791132	0.0016784668	
1741001791133	0.0037384033	
1741001791134	0.0023651123	
1741001791135	-0.001449585	
1741001791136	0.004272461	
1741001791137	-0.0016021729	
1741001791138	6.866455E-4	
1741001791139	0.0077056885	
1741001791140	-0.0010681152	
1741001791141	-0.0047302246	
1741001791142	-0.0031280518	
1741001791143	-2.2888184E-4	
1741001791144	0.0021362305	
1741001791145	0.003967285	
1741001791146	0.0050354004	
1741001791147	0.0012969971	
1741001791148	-0.0035095215	
1741001791149	-0.0046539307	
1741001791150	-0.0016784668	
1741001791151	5.340576E-4	
1741001791152	-4.5776367E-4	
1741001791153	2.2888184E-4	
1741001791154	-3.8146973E-4	
1741001791155	-0.0038146973	
1741001791156	0.0012969971	
1741001791157	0.0037384033	
1741001791158	-0.008087158	
1741001791159	-0.01083374	
1741001791160	-0.0038146973	
1741001791161	-0.0038909912	
1741001791162	-0.0024414062	
1741001791163	-0.0018310547	
1741001791164	-0.0032806396	
1741001791165	-9.918213E-4	
1741001791166	-0.0024414062	
1741001791167	-0.0022888184	
1741001791168	6.866455E-4	
1741001791169	0.004272461	
1741001791170	0.004272461	
1741001791171	0.0022888184	
1741001791172	0.008010864	
1741001791173	0.0066375732	
1741001791174	-4.5776367E-4	
1741001791175	0.0022125244	
1741001791176	0.0048828125	
1741001791177	6.1035156E-4	
1741001791178	-0.0038909912	
1741001791179	0.0025177002	
1741001791180	0.0119018555	
1741001791181	0.008621216	
1741001791182	0.0035095215	
1741001791183	-0.0023651123	
1741001791184	0.00289917	
1741001791185	0.0030517578	
1741001791186	-0.00831604	
1741001791187	9.918213E-4	
1741001791188	-9.1552734E-4	
1741001791189	-0.009918213	
1741001791190	-0.0064849854	
1741001791191	-0.007171631	
1741001791192	-0.006866455	
1741001791193	-0.0048828125	
1741001791194	-0.0016784668	
1741001791195	-0.009994507	
1741001791196	-0.015792847	
1741001791197	-0.0033569336	
1741001791198	-0.0018310547	
1741001791199	0.0010681152	
1741001791200	0.021972656	
1741001791201	0.017547607	
1741001791202	0.0016784668	
1741001791203	-0.011444092	
1741001791204	-0.04562378	
1741001791205	-0.036621094	
1741001791206	-0.014343262	
1741001791207	-0.018005371	
1741001791208	1.5258789E-4	
1741001791209	0.01625061	
1741001791210	0.05027771	
1741001791211	0.05317688	
1741001791212	0.018692017	
1741001791213	0.028152466	
1741001791214	0.021591187	
1741001791215	0.010757446	
1741001791216	0.013809204	
1741001791217	0.008087158	
1741001791218	0.0062561035	
1741001791219	-0.001449585	
1741001791220	-0.0011444092	
1741001791221	-0.0019836426	
1741001791222	-0.004043579	
1741001791223	-0.006790161	
1741001791224	-0.00831604	
1741001791225	-0.006790161	
1741001791226	-0.012817383	
1741001791227	-0.014953613	
1741001791228	-0.01663208	
1741001791229	-0.015335083	
1741001791230	-0.011672974	
1741001791231	-0.016708374	
1741001791232	-0.015258789	
1741001791233	-0.010910034	
1741001791234	-0.012207031	
1741001791235	-0.012054443	
1741001791236	-0.012512207	
1741001791237	-0.005645752	
1741001791238	0.0048828125	
1741001791239	0.0065612793	
1741001791240	0.016860962	
1741001791241	0.02998352	
1741001791242	0.01739502	
1741001791243	-0.005264282	
1741001791244	-0.0034332275	
1741001791245	0.0034332275	
1741001791246	0.013656616	
1741001791247	0.01335144	
1741001791248	-0.0025177002	
1741001791249	-0.0022888184	
1741001791250	-0.0051879883	
1741001791251	-0.009689331	
1741001791252	-0.00793457	
1741001791253	-0.01335144	
1741001791254	-0.015945435	
1741001791255	-0.0076293945	
1741001791256	1.5258789E-4	
1741001791257	7.6293945E-5	
1741001791258	-0.0032806396	
1741001791259	-0.0076293945	
1741001791260	3.0517578E-4	
1741001791261	-0.0017547607	
1741001791262	-0.0024414062	
1741001791263	0.0038146973	
1741001791264	-1.5258789E-4	
1741001791265	-0.0024414062	
1741001791266	-7.6293945E-4	
1741001791267	0.009155273	
1741001791268	0.01701355	
1741001791269	0.018539429	
1741001791270	0.018234253	
1741001791271	0.014190674	
1741001791272	0.023117065	
1741001791273	0.028305054	
1741001791274	0.023956299	
1741001791275	0.021362305	
1741001791276	0.018692017	
1741001791277	0.018463135	
1741001791278	0.011062622	
1741001791279	0.008087158	
1741001791280	0.0061798096	
1741001791281	3.8146973E-4	
1741001791282	-0.0077819824	
1741001791283	-0.019226074	
1741001791284	-0.017929077	
1741001791285	-0.017700195	
1741001791286	-0.025177002	
1741001791287	-0.027389526	
1741001791288	-0.031585693	
1741001791289	-0.028533936	
1741001791290	-0.02243042	
1741001791291	-0.023880005	
1741001791292	-0.025405884	
1741001791293	-0.027160645	
1741001791294	-0.023269653	
1741001791295	-0.024032593	
1741001791296	-0.02746582	
1741001791297	-0.018844604	
1741001791298	-0.013885498	
1741001791299	-0.011138916	
1741001791300	0.0036621094	
1741001791301	0.0075531006	
1741001791302	1.5258789E-4	
1741001791303	0.005493164	
1741001791304	0.0062561035	
1741001791305	0.008087158	
1741001791306	0.02067566	
1741001791307	0.029907227	
1741001791308	0.033416748	
1741001791309	0.030059814	
1741001791310	0.025177002	
1741001791311	0.027694702	
1741001791312	0.027694702	
1741001791313	0.00579834	
1741001791314	-0.010147095	
1741001791315	-0.011367798	
1741001791316	-0.022888184	
1741001791317	-0.020828247	
1741001791318	0.07095337	
1741001791319	0.17837524	
1741001791320	0.1335907	
1741001791321	0.01701355	
1741001791322	-7.6293945E-5	
1741001791323	-0.019607544	
1741001791324	-0.05241394	
1741001791325	-0.031967163	
1741001791326	-0.039749146	
1741001791327	-0.037002563	
1741001791328	-0.027694702	
1741001791329	-0.033187866	
1741001791330	-0.010070801	
1741001791331	-0.0119018555	
1741001791332	-0.024642944	
1741001791333	-0.02029419	
1741001791334	-0.036010742	
1741001791335	-0.042037964	
1741001791336	-0.03616333	
1741001791337	-0.03578186	
1741001791338	-0.022277832	
1741001791339	-0.009918213	
1741001791340	-0.0025177002	
1741001791341	0.007019043	
1741001791342	0.0046539307	
1741001791343	0.004501343	
1741001791344	0.017623901	
1741001791345	0.018920898	
1741001791346	0.0049591064	
1741001791347	-0.02029419	
1741001791348	-0.017852783	
1741001791349	0.013961792	
1741001791350	-0.005493164	
1741001791351	-0.029678345	
1741001791352	-0.02418518	
1741001791353	-0.037612915	
1741001791354	-0.011138916	
1741001791355	0.057525635	
1741001791356	0.09681702	
1741001791357	0.049438477	
1741001791358	-0.021057129	
1741001791359	-6.866455E-4	
1741001791360	0.012207031	
1741001791361	-0.0012207031	
1741001791362	0.0048828125	
1741001791363	-0.016098022	
1741001791364	-0.015563965	
1741001791365	0.031661987	
1741001791366	0.078201294	
1741001791367	0.05241394	
1741001791368	0.0146484375	
1741001791369	0.03829956	
1741001791370	0.02067566	
1741001791371	-0.017089844	
1741001791372	-0.014419556	
1741001791373	-0.029830933	
1741001791374	-0.0390625	
1741001791375	-0.002746582	
1741001791376	-0.00289917	
1741001791377	-0.01739502	
1741001791378	0.02609253	
1741001791379	0.052947998	
1741001791380	0.058059692	
1741001791381	0.055770874	
1741001791382	0.03540039	
1741001791383	0.0541687	
1741001791384	0.07324219	
1741001791385	0.03517151	
1741001791386	0.012588501	
1741001791387	0.006790161	
1741001791388	-0.050964355	
1741001791389	-0.101242065	
1741001791390	-0.12763977	
1741001791391	-0.15083313	
1741001791392	-0.12924194	
1741001791393	-0.118637085	
1741001791394	-0.11993408	
1741001791395	-0.108566284	
1741001791396	-0.08644104	
1741001791397	-0.07827759	
1741001791398	-0.05958557	
1741001791399	-0.03868103	
1741001791400	-0.026245117	
1741001791401	-0.013809204	
1741001791402	0.0063323975	
1741001791403	0.03364563	
1741001791404	0.052871704	
1741001791405	0.07904053	
1741001791406	0.089416504	
1741001791407	0.11077881	
1741001791408	0.124053955	
1741001791409	0.13282776	
1741001791410	0.14183044	
1741001791411	0.12794495	
1741001791412	0.11695862	
1741001791413	0.10040283	
1741001791414	0.08041382	
1741001791415	0.07469177	
1741001791416	0.05569458	
1741001791417	0.037078857	
1741001791418	0.012512207	
1741001791419	-0.014572144	
1741001791420	-0.035095215	
1741001791421	-0.048217773	
1741001791422	-0.0466156	
1741001791423	-0.06484985	
1741001791424	-0.08621216	
1741001791425	-0.08598328	
1741001791426	-0.073013306	
1741001791427	-0.04219055	
1741001791428	-0.04623413	
1741001791429	-0.07026672	
1741001791430	-0.06965637	
1741001791431	-0.05935669	
1741001791432	-0.035858154	
1741001791433	-0.021057129	
1741001791434	-0.026016235	
1741001791435	-0.027694702	
1741001791436	-0.026931763	
1741001791437	-0.023651123	
1741001791438	-0.016403198	
1741001791439	0.0012969971	
1741001791440	0.043563843	
1741001791441	0.043945312	
1741001791442	0.026016235	
1741001791443	0.035705566	
1741001791444	-0.027618408	
1741001791445	-0.11077881	
1741001791446	-0.09559631	
1741001791447	-0.021743774	
1741001791448	0.10139465	
1741001791449	0.14564514	
1741001791450	0.07904053	
1741001791451	0.13298035	
1741001791452	0.16487122	
1741001791453	0.05126953	
1741001791454	0.019378662	
1741001791455	0.043945312	
1741001791456	0.0045776367	
1741001791457	-0.009994507	
1741001791458	0.016326904	
1741001791459	-0.03189087	
1741001791460	-0.109558105	
1741001791461	-0.08453369	
1741001791462	-0.018005371	
1741001791463	0.034561157	
1741001791464	0.025405884	
1741001791465	-0.05088806	
1741001791466	-0.048294067	
1741001791467	-0.023727417	
1741001791468	-0.020599365	
1741001791469	-0.04020691	
1741001791470	-0.06736755	
1741001791471	-0.052490234	
1741001791472	-0.043029785	
1741001791473	-0.037994385	
1741001791474	-0.023498535	
1741001791475	0.012588501	
1741001791476	0.038223267	
1741001791477	0.011367798	
1741001791478	0.009460449	
1741001791479	0.028686523	
1741001791480	0.001373291	
1741001791481	-0.011138916	
1741001791482	-0.010910034	
1741001791483	-0.05882263	
1741001791484	-0.039367676	
1741001791485	0.049057007	
1741001791486	0.08415222	
1741001791487	0.07156372	
1741001791488	0.031967163	
1741001791489	0.04776001	
1741001791490	0.082473755	
1741001791491	0.082092285	
1741001791492	0.054016113	
1741001791493	-0.007171631	
1741001791494	-0.016098022	
1741001791495	-0.04890442	
1741001791496	-0.061340332	
1741001791497	-9.918213E-4	
1741001791498	-0.016784668	
1741001791499	0.0011444092	
1741001791500	0.0025177002	
1741001791501	-0.064315796	
1741001791502	-0.066986084	
1741001791503	-0.05126953	
1741001791504	0.03578186	
1741001791505	0.09803772	
1741001791506	0.0415802	
1741001791507	0.06454468	
1741001791508	0.05317688	
1741001791509	-0.076293945	
1741001791510	-0.08621216	
1741001791511	-0.03463745	
1741001791512	0.0051879883	
1741001791513	0.031204224	
1741001791514	0.0118255615	
1741001791515	0.0047302246	
1741001791516	-0.036697388	
1741001791517	-0.053253174	
1741001791518	-0.016174316	
1741001791519	0.019302368	
1741001791520	0.03807068	
1741001791521	0.0051879883	
1741001791522	4.5776367E-4	
1741001791523	0.00289917	
1741001791524	-0.02494812	
1741001791525	-0.0019836426	
1741001791526	0.02319336	
1741001791527	-0.0051116943	
1741001791528	-0.0074768066	
1741001791529	-0.004425049	
1741001791530	-0.024108887	
1741001791531	0.004348755	
1741001791532	0.022583008	
1741001791533	-0.028457642	
1741001791534	-0.044021606	
1741001791535	0.0035858154	
1741001791536	0.0062561035	
1741001791537	-4.5776367E-4	
1741001791538	0.00579834	
1741001791539	-0.015106201	
1741001791540	-0.021591187	
1741001791541	-0.03501892	
1741001791542	-0.045166016	
1741001791543	0.015258789	
1741001791544	0.0692749	
1741001791545	0.038528442	
1741001791546	0.014038086	
1741001791547	0.027160645	
1741001791548	0.019226074	
1741001791549	0.0037384033	
1741001791550	0.009994507	
1741001791551	0.024032593	
1741001791552	0.026779175	
1741001791553	0.036849976	
1741001791554	0.036621094	
1741001791555	0.0020599365	
1741001791556	-0.036087036	
1741001791557	-0.045928955	
1741001791558	-0.014877319	
1741001791559	0.018539429	
1741001791560	0.023422241	
1741001791561	0.02998352	
1741001791562	0.037002563	
1741001791563	0.013656616	
1741001791564	-0.010910034	
1741001791565	-0.014877319	
1741001791566	-9.918213E-4	
1741001791567	0.020751953	
1741001791568	-0.024261475	
1741001791569	-0.06462097	
1741001791570	-0.028839111	
1741001791571	-0.033950806	
1741001791572	-0.04524231	
1741001791573	-0.022506714	
1741001791574	-0.027618408	
1741001791575	-0.019683838	
1741001791576	0.0064086914	
1741001791577	0.01449585	
1741001791578	-0.0045776367	
1741001791579	-0.01159668	
1741001791580	-0.011291504	
1741001791581	-0.015945435	
1741001791582	0.0051879883	
1741001791583	0.008621216	
1741001791584	0.004043579	
1741001791585	0.021896362	
1741001791586	0.03173828	
1741001791587	0.022277832	
1741001791588	0.003967285	
1741001791589	0.012207031	
1741001791590	0.026016235	
1741001791591	0.014801025	
1741001791592	0.010147095	
1741001791593	0.029296875	
1741001791594	0.010070801	
1741001791595	-0.038146973	
1741001791596	-0.0119018555	
1741001791597	0.020217896	
1741001791598	0.0032806396	
1741001791599	0.0037384033	
1741001791600	0.011520386	
1741001791601	0.020904541	
1741001791602	0.013885498	
1741001791603	-0.0146484375	
1741001791604	-0.0045776367	
1741001791605	0.013809204	
1741001791606	0.0051879883	
1741001791607	2.2888184E-4	
1741001791608	0.0022125244	
1741001791609	-0.005722046	
1741001791610	-0.01411438	
1741001791611	-0.02319336	
1741001791612	-0.03807068	
1741001791613	-0.016937256	
1741001791614	0.009460449	
1741001791615	-0.0036621094	
1741001791616	-0.006713867	
1741001791617	-0.0016021729	
1741001791618	-0.0025177002	
1741001791619	0.009155273	
1741001791620	0.011291504	
1741001791621	0.009002686	
1741001791622	0.0019836426	
1741001791623	-0.019454956	
1741001791624	-0.02822876	
1741001791625	-0.031204224	
1741001791626	-0.010681152	
1741001791627	0.008392334	
1741001791628	-0.0491333	
1741001791629	-0.07003784	
1741001791630	-0.0063323975	
1741001791631	0.034713745	
1741001791632	0.08178711	
1741001791633	0.1020813	
1741001791634	0.017547607	
1741001791635	-0.047531128	
1741001791636	-0.009231567	
1741001791637	0.04562378	
1741001791638	0.066604614	
1741001791639	0.053100586	
1741001791640	0.018844604	
1741001791641	-0.02708435	
1741001791642	-0.061569214	
1741001791643	-0.0289917	
1741001791644	-0.007095337	
1741001791645	-0.07522583	
1741001791646	-0.09490967	
1741001791647	-0.033798218	
1741001791648	0.006790161	
1741001791649	0.03807068	
1741001791650	0.0819397	
1741001791651	0.10154724	
1741001791652	0.030670166	
1741001791653	-0.023117065	
1741001791654	0.033187866	
1741001791655	0.024261475	
1741001791656	-0.028839111	
1741001791657	-0.010528564	
1741001791658	0.0063323975	
1741001791659	-0.0076293945	
1741001791660	-0.033111572	
1741001791661	-0.010223389	
1741001791662	-0.0021362305	
1741001791663	-0.029830933	
1741001791664	-0.0048065186	
1741001791665	-0.016326904	
1741001791666	-0.04020691	
1741001791667	-0.0491333	
1741001791668	-0.07362366	
1741001791669	-0.03753662	
1741001791670	0.01449585	
1741001791671	0.060958862	
1741001791672	0.082092285	
1741001791673	0.03173828	
1741001791674	0.0060272217	
1741001791675	-0.0024414062	
1741001791676	-0.057296753	
1741001791677	-0.12130737	
1741001791678	0.0073242188	
1741001791679	0.20881653	
1741001791680	0.07987976	
1741001791681	-0.01159668	
1741001791682	0.08148193	
1741001791683	0.021057129	
1741001791684	-0.030288696	
1741001791685	-0.0617218	
1741001791686	-0.0592041	
1741001791687	0.03829956	
1741001791688	0.025177002	
1741001791689	-0.01625061	
1741001791690	0.0034332275	
1741001791691	0.047683716	
1741001791692	0.072021484	
1741001791693	-0.08682251	
1741001791694	-0.27534485	
1741001791695	-0.2506256	
1741001791696	-0.053253174	
1741001791697	0.23483276	
1741001791698	0.338974	
1741001791699	0.11894226	
1741001791700	-0.0025177002	
1741001791701	0.014724731	
1741001791702	-0.047836304	
1741001791703	-0.05645752	
1741001791704	-0.048675537	
1741001791705	-0.047225952	
1741001791706	-0.019302368	
1741001791707	-0.056152344	
1741001791708	-0.110702515	
1741001791709	-0.08552551	
1741001791710	0.024108887	
1741001791711	0.10681152	
1741001791712	0.04348755	
1741001791713	-0.030899048	
1741001791714	0.021972656	
1741001791715	0.004043579	
1741001791716	-0.044708252	
1741001791717	0.0340271	
1741001791718	0.07331848	
1741001791719	0.020828247	
1741001791720	-0.046310425	
1741001791721	-0.037841797	
1741001791722	0.029373169	
1741001791723	0.09246826	
1741001791724	0.027770996	
1741001791725	-0.13923645	
1741001791726	-0.11581421	
1741001791727	0.04348755	
1741001791728	0.02204895	
1741001791729	-0.07644653	
1741001791730	0.01159668	
1741001791731	0.07751465	
1741001791732	0.054779053	
1741001791733	0.087509155	
1741001791734	0.13519287	
1741001791735	0.11932373	
1741001791736	-0.041732788	
1741001791737	-0.17288208	
1741001791738	-0.14564514	
1741001791739	-0.053482056	
1741001791740	-0.0440979	
1741001791741	-0.13816833	
1741001791742	-0.03753662	
1741001791743	0.097961426	
1741001791744	0.041427612	
1741001791745	0.0630188	
1741001791746	0.13320923	
1741001791747	0.16311646	
1741001791748	0.11833191	
1741001791749	0.11795044	
1741001791750	0.22140503	
1741001791751	0.035247803	
1741001791752	-0.1499176	
1741001791753	-0.13877869	
1741001791754	-0.20637512	
1741001791755	-0.0743866	
1741001791756	0.107803345	
1741001791757	0.027313232	
1741001791758	-0.13214111	
1741001791759	-0.24154663	
1741001791760	-0.209198	
1741001791761	-0.12878418	
1741001791762	-0.03479004	
1741001791763	0.08895874	
1741001791764	0.16067505	
1741001791765	0.18600464	
1741001791766	0.13168335	
1741001791767	0.014877319	
1741001791768	-0.1171875	
1741001791769	-0.14678955	
1741001791770	0.041809082	
1741001791771	0.157547	
1741001791772	0.0074768066	
1741001791773	-0.060195923	
1741001791774	-0.01625061	
1741001791775	-0.061798096	
1741001791776	0.030670166	
1741001791777	0.068359375	
1741001791778	-0.0995636	
1741001791779	-0.13923645	
1741001791780	-0.07911682	
1741001791781	0.08377075	
1741001791782	0.23368835	
1741001791783	0.16197205	
1741001791784	0.09391785	
1741001791785	0.020980835	
1741001791786	-0.05279541	
1741001791787	-0.009231567	
1741001791788	0.016555786	
1741001791789	0.018081665	
1741001791790	-0.004272461	
1741001791791	-0.024261475	
1741001791792	-0.0667572	
1741001791793	-0.09643555	
1741001791794	-0.03463745	
1741001791795	-0.07698059	
1741001791796	-0.1410675	
1741001791797	-0.13404846	
1741001791798	-0.05393982	
1741001791799	0.07247925	
1741001791800	0.114212036	
1741001791801	0.21476746	
1741001791802	0.27191162	
1741001791803	0.14839172	
1741001791804	0.022277832	
1741001791805	-0.05935669	
1741001791806	-0.06484985	
1741001791807	-0.0693512	
1741001791808	-0.15296936	
1741001791809	-0.16105652	
1741001791810	-0.008850098	
1741001791811	0.08644104	
1741001791812	-0.04020691	
1741001791813	-0.022888184	
1741001791814	0.11367798	
1741001791815	-0.022354126	
1741001791816	-0.088653564	
1741001791817	-0.002670288	
1741001791818	-0.026931763	
1741001791819	0.020141602	
1741001791820	0.06515503	
1741001791821	-0.029296875	
1741001791822	-0.076293945	
1741001791823	-0.05455017	
1741001791824	0.0034332275	
1741001791825	0.090408325	
1741001791826	0.06744385	
1741001791827	0.011367798	
1741001791828	0.04562378	
1741001791829	0.032577515	
1741001791830	-0.04020691	
1741001791831	-0.06324768	
1741001791832	-0.009918213	
1741001791833	0.050964355	
1741001791834	0.0077819824	
1741001791835	-0.05645752	
1741001791836	-0.01838684	
1741001791837	0.041732788	
1741001791838	0.02204895	
1741001791839	-0.048599243	
1741001791840	-0.0554657	
1741001791841	-0.052337646	
1741001791842	-0.15510559	
1741001791843	-0.14251709	
1741001791844	0.04837036	
1741001791845	0.19622803	
1741001791846	0.21629333	
1741001791847	0.15312195	
1741001791848	0.17333984	
1741001791849	0.1385498	
1741001791850	-0.0566864	
1741001791851	-0.14694214	
1741001791852	-0.14015198	
1741001791853	-0.103149414	
1741001791854	-0.022964478	
1741001791855	-0.0011444092	
1741001791856	-0.011672974	
1741001791857	-0.033416748	
1741001791858	-0.035095215	
1741001791859	0.009994507	
1741001791860	0.008468628	
1741001791861	-6.866455E-4	
1741001791862	0.008850098	
1741001791863	-0.0016784668	
1741001791864	-0.0025177002	
1741001791865	-0.011138916	
1741001791866	-0.018463135	
1741001791867	-0.0016784668	
1741001791868	0.0090789795	
1741001791869	0.009918213	
1741001791870	0.011749268	
1741001791871	0.016708374	
1741001791872	0.011672974	
1741001791873	0.0060272217	
1741001791874	0.014266968	
1741001791875	0.015411377	
1741001791876	-0.008163452	
1741001791877	-0.05493164	
1741001791878	-0.06782532	
1741001791879	-0.044708252	
1741001791880	0.0059509277	
1741001791881	0.12237549	
1741001791882	0.12237549	
1741001791883	0.022277832	
1741001791884	0.04486084	
1741001791885	0.008087158	
1741001791886	-0.059127808	
1741001791887	-0.016098022	
1741001791888	-0.026626587	
1741001791889	-0.015945435	
1741001791890	0.0010681152	
1741001791891	-0.027160645	
1741001791892	-0.012512207	
1741001791893	-0.016784668	
1741001791894	-0.022125244	
1741001791895	-0.011520386	
1741001791896	-0.012817383	
1741001791897	-0.004425049	
1741001791898	0.0011444092	
1741001791899	0.0021362305	
1741001791900	-0.001449585	
1741001791901	-0.0038146973	
1741001791902	-0.009307861	
1741001791903	-0.011138916	
1741001791904	0.007019043	
1741001791905	0.0104522705	
1741001791906	0.00579834	
1741001791907	0.0090789795	
1741001791908	0.0034332275	
1741001791909	0.006942749	
1741001791910	0.011291504	
1741001791911	0.0074005127	
1741001791912	0.009307861	
1741001791913	0.005722046	
1741001791914	0.0090789795	
1741001791915	0.010986328	
1741001791916	0.003967285	
1741001791917	0.008163452	
1741001791918	0.0032806396	
1741001791919	-0.0033569336	
1741001791920	9.1552734E-4	
1741001791921	-0.0016784668	
1741001791922	-0.004501343	
1741001791923	-0.0011444092	
1741001791924	-0.005645752	
1741001791925	-0.010986328	
1741001791926	-0.00579834	
1741001791927	-0.0022888184	
1741001791928	-0.0033569336	
1741001791929	-0.005493164	
1741001791930	-0.0033569336	
1741001791931	7.6293945E-4	
1741001791932	1.5258789E-4	
1741001791933	0.0029754639	
1741001791934	0.0016021729	
1741001791935	-9.1552734E-4	
1741001791936	0.0021362305	
1741001791937	0.0034332275	
1741001791938	0.0017547607	
1741001791939	-0.0019073486	
1741001791940	0.0019836426	
1741001791941	0.004196167	
1741001791942	-0.0024414062	
1741001791943	-0.009765625	
1741001791944	-0.011138916	
1741001791945	-0.006942749	
1741001791946	-0.0022125244	
1741001791947	0.0015258789	
1741001791948	-0.0038909912	
1741001791949	-0.0034332275	
1741001791950	0.0021362305	
1741001791951	-9.918213E-4	
1741001791952	-0.0050354004	
1741001791953	-0.0049591064	
1741001791954	-9.1552734E-4	
1741001791955	-0.001449585	
1741001791956	2.2888184E-4	
1741001791957	0.011978149	
1741001791958	0.021133423	
1741001791959	0.016784668	
1741001791960	0.010910034	
1741001791961	0.0050354004	
1741001791962	9.1552734E-4	
1741001791963	0.0033569336	
1741001791964	-0.0030517578	
1741001791965	-0.008850098	
1741001791966	-0.0061798096	
1741001791967	-0.005569458	
1741001791968	8.392334E-4	
1741001791969	0.008621216	
1741001791970	0.0035858154	
1741001791971	0.0012207031	
1741001791972	0.007247925	
1741001791973	0.0018310547	
1741001791974	-0.00831604	
1741001791975	-0.008468628	
1741001791976	-0.0021362305	
1741001791977	-0.0011444092	
1741001791978	-0.0051879883	
1741001791979	-0.007171631	
1741001791980	-0.0077819824	
1741001791981	-9.1552734E-4	
1741001791982	0.0051879883	
1741001791983	0.006790161	
1741001791984	0.011520386	
1741001791985	0.010299683	
1741001791986	-8.392334E-4	
1741001791987	-0.007247925	
1741001791988	-0.004272461	
1741001791989	-0.008239746	
1741001791990	-0.0073242188	
1741001791991	0.0074005127	
1741001791992	0.0064086914	
1741001791993	-0.007247925	
1741001791994	-0.014877319	
1741001791995	-0.017242432	
1741001791996	-0.014038086	
1741001791997	-0.0060272217	
1741001791998	-0.0034332275	
1741001791999	-0.008926392	
1741001792000	-0.01449585	
1741001792001	-0.015182495	
1741001792002	-0.009307861	
1741001792003	-6.1035156E-4	
1741001792004	-0.0061035156	
1741001792005	-0.005874634	
1741001792006	0.008926392	
1741001792007	0.021362305	
1741001792008	0.030212402	
1741001792009	0.023803711	
1741001792010	0.023727417	
1741001792011	0.033950806	
1741001792012	0.034103394	
1741001792013	0.034866333	
1741001792014	0.03227234	
1741001792015	0.02281189	
1741001792016	0.016708374	
1741001792017	0.013656616	
1741001792018	-9.1552734E-4	
1741001792019	-0.012512207	
1741001792020	-0.010681152	
1741001792021	-0.013504028	
1741001792022	-0.015792847	
1741001792023	-0.015182495	
1741001792024	-0.019836426	
1741001792025	-0.020217896	
1741001792026	-0.015487671	
1741001792027	-0.016860962	
1741001792028	-0.019760132	
1741001792029	-0.017623901	
1741001792030	-0.018310547	
1741001792031	-0.01739502	
1741001792032	-0.010910034	
1741001792033	-0.011291504	
1741001792034	-0.0104522705	
1741001792035	-0.005569458	
1741001792036	-0.0025939941	
1741001792037	-0.0062561035	
1741001792038	-0.009155273	
1741001792039	-0.0016784668	
1741001792040	7.6293945E-5	
1741001792041	-0.0022888184	
1741001792042	-8.392334E-4	
1741001792043	-0.002670288	
1741001792044	-0.011749268	
1741001792045	1.5258789E-4	
1741001792046	0.015487671	
1741001792047	0.012207031	
1741001792048	0.010528564	
1741001792049	0.014801025	
1741001792050	0.019683838	
1741001792051	0.018920898	
1741001792052	0.013809204	
1741001792053	0.008544922	
1741001792054	-8.392334E-4	
1741001792055	-0.005493164	
1741001792056	6.866455E-4	
1741001792057	0.0048828125	
1741001792058	0.008926392	
1741001792059	0.015106201	
1741001792060	0.01777649	
1741001792061	0.010528564	
1741001792062	-0.010223389	
1741001792063	-0.015563965	
1741001792064	-0.006713867	
1741001792065	-0.0064849854	
1741001792066	-0.004043579	
1741001792067	-0.0033569336	
1741001792068	0.0035858154	
1741001792069	0.0033569336	
1741001792070	-0.002822876	
1741001792071	-4.5776367E-4	
1741001792072	-0.0038146973	
1741001792073	0.0022125244	
1741001792074	0.007247925	
1741001792075	9.918213E-4	
1741001792076	-4.5776367E-4	
1741001792077	-9.918213E-4	
1741001792078	-6.1035156E-4	
1741001792079	0.0030517578	
1741001792080	0.0031280518	
1741001792081	7.6293945E-4	
1741001792082	-0.002746582	
1741001792083	0.0074005127	
1741001792084	0.005264282	
1741001792085	-0.007095337	
1741001792086	0.00289917	
1741001792087	6.866455E-4	
1741001792088	-0.0046539307	
1741001792089	-0.0016784668	
1741001792090	-0.012969971	
1741001792091	-0.01373291	
1741001792092	-0.0061798096	
1741001792093	-0.010375977	
1741001792094	-0.0090789795	
1741001792095	-0.0037384033	
1741001792096	0.004425049	
1741001792097	0.014038086	
1741001792098	0.0048828125	
1741001792099	-0.0029754639	
1741001792100	0.001373291	
1741001792101	-0.004196167	
1741001792102	0.0010681152	
1741001792103	-1.5258789E-4	
1741001792104	-0.0050354004	
1741001792105	0.0046539307	
1741001792106	-5.340576E-4	
1741001792107	-0.0016021729	
1741001792108	0.0031280518	
1741001792109	-6.1035156E-4	
1741001792110	0.0030517578	
1741001792111	0.0025939941	
1741001792112	3.0517578E-4	
1741001792113	0.006866455	
1741001792114	0.0046539307	
1741001792115	0.0021362305	
1741001792116	0.0063323975	
1741001792117	0.005493164	
1741001792118	0.0019073486	
1741001792119	-1.5258789E-4	
1741001792120	6.1035156E-4	
1741001792121	0.0	
1741001792122	0.0021362305	
1741001792123	0.0047302246	
1741001792124	0.0012969971	
1741001792125	0.0032043457	
1741001792126	0.0049591064	
1741001792127	-0.0037384033	
1741001792128	-0.006942749	
1741001792129	-0.0024414062	
1741001792130	-0.004196167	
1741001792131	-0.002822876	
1741001792132	-0.004348755	
1741001792133	-0.008468628	
1741001792134	-0.005340576	
1741001792135	-0.0061798096	
1741001792136	-0.0022888184	
1741001792137	5.340576E-4	
1741001792138	-0.0010681152	
1741001792139	0.005340576	
1741001792140	-0.0033569336	
1741001792141	-0.008087158	
1741001792142	-0.0035858154	
1741001792143	-0.006866455	
1741001792144	-0.0021362305	
1741001792145	-0.0034332275	
1741001792146	0.0021362305	
1741001792147	0.017852783	
1741001792148	0.023345947	
1741001792149	0.0074768066	
1741001792150	-0.0077819824	
1741001792151	-0.0016784668	
1741001792152	-0.002670288	
1741001792153	-0.010375977	
1741001792154	-0.007171631	
1741001792155	-0.0035858154	
1741001792156	-6.1035156E-4	
1741001792157	0.005264282	
1741001792158	0.0104522705	
1741001792159	0.00869751	
1741001792160	-0.00579834	
1741001792161	-0.0061798096	
1741001792162	-0.0047302246	
1741001792163	-0.0051879883	
1741001792164	0.0064086914	
1741001792165	0.0050354004	
1741001792166	0.0023651123	
1741001792167	0.004119873	
1741001792168	0.0023651123	
1741001792169	0.001449585	
1741001792170	-0.0036621094	
1741001792171	6.1035156E-4	
1741001792172	0.009384155	
1741001792173	0.001449585	
1741001792174	-0.007095337	
1741001792175	-4.5776367E-4	
1741001792176	0.0062561035	
1741001792177	-5.340576E-4	
1741001792178	-0.0047302246	
1741001792179	-0.0038146973	
1741001792180	-0.004425049	
1741001792181	-0.0033569336	
1741001792182	-0.0034332275	
1741001792183	-0.005569458	
1741001792184	-0.0012207031	
1741001792185	-9.918213E-4	
1741001792186	-2.2888184E-4	
1741001792187	-0.0061798096	
1741001792188	-2.2888184E-4	
1741001792189	0.011367798	
1741001792190	0.002746582	
1741001792191	6.1035156E-4	
1741001792192	-0.004272461	
1741001792193	-0.00579834	
1741001792194	0.00289917	
1741001792195	0.005264282	
1741001792196	0.0090789795	
1741001792197	0.008621216	
1741001792198	0.0025939941	
1741001792199	0.008850098	
1741001792200	0.017166138	
1741001792201	0.015792847	
1741001792202	0.0059509277	
1741001792203	-0.013122559	
1741001792204	-0.027313232	
1741001792205	-0.01449585	
1741001792206	2.2888184E-4	
1741001792207	0.009918213	
1741001792208	0.027389526	
1741001792209	0.034866333	
1741001792210	0.029449463	
1741001792211	0.0051879883	
1741001792212	-0.01625061	
1741001792213	-0.035858154	
1741001792214	-0.0491333	
1741001792215	-0.02998352	
1741001792216	-0.017700195	
1741001792217	-0.009765625	
1741001792218	-0.0035858154	
1741001792219	0.010910034	
1741001792220	0.034484863	
1741001792221	0.0074768066	
1741001792222	-0.00869751	
1741001792223	0.008392334	
1741001792224	-0.0017547607	
1741001792225	-0.0035858154	
1741001792226	-0.0038146973	
1741001792227	-0.009841919	
1741001792228	-0.0062561035	
1741001792229	-0.011367798	
1741001792230	-0.0036621094	
1741001792231	0.008621216	
1741001792232	0.008926392	
1741001792233	0.012207031	
1741001792234	6.866455E-4	
1741001792235	-0.022735596	
1741001792236	-0.029830933	
1741001792237	-0.04600525	
1741001792238	-0.046920776	
1741001792239	0.039596558	
1741001792240	0.11909485	
1741001792241	0.070877075	
1741001792242	0.018844604	
1741001792243	0.01991272	
1741001792244	-0.0034332275	
1741001792245	-0.018692017	
1741001792246	-0.024642944	
1741001792247	-0.018234253	
1741001792248	-5.340576E-4	
1741001792249	-0.00793457	
1741001792250	-0.011672974	
1741001792251	-0.007247925	
1741001792252	-0.012588501	
1741001792253	-0.023040771	
1741001792254	-0.025177002	
1741001792255	-0.02319336	
1741001792256	-0.022583008	
1741001792257	-0.008926392	
1741001792258	0.0012207031	
1741001792259	-0.0018310547	
1741001792260	-0.005722046	
1741001792261	-0.0048065186	
1741001792262	0.003967285	
1741001792263	0.009307861	
1741001792264	0.0050354004	
1741001792265	3.8146973E-4	
1741001792266	0.009994507	
1741001792267	0.028152466	
1741001792268	0.033798218	
1741001792269	0.02822876	
1741001792270	0.02418518	
1741001792271	0.020446777	
1741001792272	0.026168823	
1741001792273	0.032958984	
1741001792274	0.023956299	
1741001792275	0.02281189	
1741001792276	0.027236938	
1741001792277	0.020217896	
1741001792278	0.006942749	
1741001792279	-0.0051116943	
1741001792280	-0.009765625	
1741001792281	-0.013809204	
1741001792282	-0.024719238	
1741001792283	-0.028305054	
1741001792284	-0.027770996	
1741001792285	-0.031433105	
1741001792286	-0.03173828	
1741001792287	-0.032958984	
1741001792288	-0.03715515	
1741001792289	-0.034332275	
1741001792290	-0.029067993	
1741001792291	-0.036697388	
1741001792292	-0.04425049	
1741001792293	-0.029678345	
1741001792294	-0.01586914	
1741001792295	-0.010070801	
1741001792296	-6.866455E-4	
1741001792297	0.0061035156	
1741001792298	0.013580322	
1741001792299	0.014953613	
1741001792300	0.009384155	
1741001792301	0.014266968	
1741001792302	0.020370483	
1741001792303	0.017700195	
1741001792304	0.018844604	
1741001792305	0.020523071	
1741001792306	0.018692017	
1741001792307	0.022125244	
1741001792308	0.030517578	
1741001792309	0.03227234	
1741001792310	0.0315094	
1741001792311	0.034484863	
1741001792312	0.029754639	
1741001792313	0.01663208	
1741001792314	0.0025939941	
1741001792315	-0.0025177002	
1741001792316	-0.0051116943	
1741001792317	0.0024414062	
1741001792318	0.024337769	
1741001792319	0.012130737	
1741001792320	-0.013046265	
1741001792321	-0.021438599	
1741001792322	-0.029373169	
1741001792323	-0.028686523	
1741001792324	-0.02243042	
1741001792325	-0.004043579	
1741001792326	0.015182495	
1741001792327	0.007171631	
1741001792328	-6.1035156E-4	
1741001792329	-0.0065612793	
1741001792330	-0.010223389	
1741001792331	-0.008850098	
1741001792332	-0.01777649	
1741001792333	-0.01777649	
1741001792334	-0.012741089	
1741001792335	-0.006942749	
1741001792336	-0.0022888184	
1741001792337	-0.0051879883	
1741001792338	-0.0010681152	
1741001792339	0.004272461	
1741001792340	0.015029907	
1741001792341	0.02166748	
1741001792342	0.01876831	
1741001792343	0.012130737	
1741001792344	-0.0033569336	
1741001792345	-0.008926392	
1741001792346	-0.016174316	
1741001792347	-0.025939941	
1741001792348	-0.018081665	
1741001792349	-0.011367798	
1741001792350	-0.013504028	
1741001792351	-0.024108887	
1741001792352	-0.03730774	
1741001792353	-0.037765503	
1741001792354	-0.021972656	
1741001792355	-0.0074005127	
1741001792356	-1.5258789E-4	
1741001792357	0.009460449	
1741001792358	0.01777649	
1741001792359	0.012283325	
1741001792360	0.00793457	
1741001792361	0.020446777	
1741001792362	0.024108887	
1741001792363	0.012283325	
1741001792364	0.010375977	
1741001792365	0.015945435	
1741001792366	0.022735596	
1741001792367	0.029067993	
1741001792368	0.029830933	
1741001792369	0.025787354	
1741001792370	0.007858276	
1741001792371	0.001373291	
1741001792372	0.006790161	
1741001792373	-0.008163452	
1741001792374	-0.005340576	
1741001792375	0.029525757	
1741001792376	0.061416626	
1741001792377	0.074920654	
1741001792378	0.06652832	
1741001792379	0.06248474	
1741001792380	0.073394775	
1741001792381	0.055770874	
1741001792382	0.027236938	
1741001792383	0.015640259	
1741001792384	-0.018615723	
1741001792385	-0.0605011	
1741001792386	-0.07270813	
1741001792387	-0.07751465	
1741001792388	-0.08956909	
1741001792389	-0.09819031	
1741001792390	-0.10986328	
1741001792391	-0.10658264	
1741001792392	-0.1007843	
1741001792393	-0.08583069	
1741001792394	-0.07423401	
1741001792395	-0.095443726	
1741001792396	-0.08270264	
1741001792397	-0.064697266	
1741001792398	-0.041885376	
1741001792399	-0.0059509277	
1741001792400	0.013809204	
1741001792401	0.031433105	
1741001792402	0.033798218	
1741001792403	0.06278992	
1741001792404	0.07499695	
1741001792405	0.08148193	
1741001792406	0.08628845	
1741001792407	0.07522583	
1741001792408	0.08995056	
1741001792409	0.090789795	
1741001792410	0.10673523	
1741001792411	0.11604309	
1741001792412	0.08659363	
1741001792413	0.07102966	
1741001792414	0.041885376	
1741001792415	0.025634766	
1741001792416	0.043029785	
1741001792417	0.025787354	
1741001792418	-0.015945435	
1741001792419	-0.023040771	
1741001792420	-0.022354126	
1741001792421	-0.02029419	
1741001792422	0.0020599365	
1741001792423	-0.014801025	
1741001792424	-0.037765503	
1741001792425	-0.048599243	
1741001792426	-0.062942505	
1741001792427	-0.06492615	
1741001792428	-0.07476807	
1741001792429	-0.07865906	
1741001792430	-0.07133484	
1741001792431	-0.055923462	
1741001792432	-0.04966736	
1741001792433	-0.058898926	
1741001792434	-0.02532959	
1741001792435	-0.015411377	
1741001792436	-0.017700195	
1741001792437	0.0037384033	
1741001792438	0.004272461	
1741001792439	0.0060272217	
1741001792440	-0.015411377	
1741001792441	-0.023117065	
1741001792442	0.03677368	
1741001792443	0.04966736	
1741001792444	0.04600525	
1741001792445	0.040359497	
1741001792446	-0.01701355	
1741001792447	0.009689331	
1741001792448	0.05256653	
1741001792449	0.033111572	
1741001792450	0.022201538	
1741001792451	0.0390625	
1741001792452	0.058670044	
1741001792453	0.045928955	
1741001792454	0.02746582	
1741001792455	0.005340576	
1741001792456	0.004119873	
1741001792457	0.0118255615	
1741001792458	-0.027694702	
1741001792459	-0.031661987	
1741001792460	0.032348633	
1741001792461	0.06210327	
1741001792462	0.0074005127	
1741001792463	-0.032958984	
1741001792464	-0.007095337	
1741001792465	0.0046539307	
1741001792466	-0.006942749	
1741001792467	-0.008163452	
1741001792468	-0.044021606	
1741001792469	-0.09765625	
1741001792470	-0.017471313	
1741001792471	0.037002563	
1741001792472	-0.0680542	
1741001792473	-0.09552002	
1741001792474	-0.037002563	
1741001792475	-4.5776367E-4	
1741001792476	0.035095215	
1741001792477	0.04234314	
1741001792478	0.02456665	
1741001792479	-0.028533936	
1741001792480	-0.08476257	
1741001792481	-0.054244995	
1741001792482	0.002822876	
1741001792483	0.010757446	
1741001792484	0.022125244	
1741001792485	0.056915283	
1741001792486	0.0390625	
1741001792487	-0.007095337	
1741001792488	-0.0046539307	
1741001792489	0.01411438	
1741001792490	0.029067993	
1741001792491	0.05958557	
1741001792492	0.0717926	
1741001792493	0.042800903	
1741001792494	0.0132751465	
1741001792495	-0.0076293945	
1741001792496	-0.00579834	
1741001792497	0.018997192	
1741001792498	-0.022201538	
1741001792499	-0.04310608	
1741001792500	0.008850098	
1741001792501	0.015945435	
1741001792502	-0.0032806396	
1741001792503	0.008468628	
1741001792504	0.01411438	
1741001792505	0.0046539307	
1741001792506	-0.0032043457	
1741001792507	-0.024642944	
1741001792508	-0.04096985	
1741001792509	-0.016326904	
1741001792510	0.011672974	
1741001792511	0.019073486	
1741001792512	0.02822876	
1741001792513	-0.008773804	
1741001792514	-0.030899048	
1741001792515	0.008239746	
1741001792516	0.0018310547	
1741001792517	-0.0630188	
1741001792518	-0.06942749	
1741001792519	-0.013122559	
1741001792520	-0.0036621094	
1741001792521	-0.009765625	
1741001792522	0.012054443	
1741001792523	0.027999878	
1741001792524	0.004196167	
1741001792525	-0.011291504	
1741001792526	0.021743774	
1741001792527	0.02357483	
1741001792528	0.025482178	
1741001792529	0.04196167	
1741001792530	0.02494812	
1741001792531	0.026168823	
1741001792532	0.0146484375	
1741001792533	-0.023651123	
1741001792534	-0.014953613	
1741001792535	-0.01914978	
1741001792536	-0.03753662	
1741001792537	-0.001373291	
1741001792538	0.0035858154	
1741001792539	-0.025177002	
1741001792540	-0.04425049	
1741001792541	-0.04486084	
1741001792542	0.017547607	
1741001792543	0.036621094	
1741001792544	0.007171631	
1741001792545	0.024490356	
1741001792546	0.030517578	
1741001792547	0.036697388	
1741001792548	0.033569336	
1741001792549	-0.012207031	
1741001792550	-0.0019073486	
1741001792551	0.030136108	
1741001792552	0.0010681152	
1741001792553	-0.009918213	
1741001792554	0.014572144	
1741001792555	0.017089844	
1741001792556	0.025024414	
1741001792557	0.0031280518	
1741001792558	-0.043640137	
1741001792559	-0.008010864	
1741001792560	0.02029419	
1741001792561	-0.042800903	
1741001792562	-0.091171265	
1741001792563	-0.074539185	
1741001792564	-0.033416748	
1741001792565	0.0076293945	
1741001792566	0.03944397	
1741001792567	0.04814148	
1741001792568	0.009155273	
1741001792569	-0.059814453	
1741001792570	-0.056991577	
1741001792571	-0.022659302	
1741001792572	-0.008544922	
1741001792573	0.015487671	
1741001792574	0.0064849854	
1741001792575	0.030441284	
1741001792576	0.058059692	
1741001792577	0.016784668	
1741001792578	0.009613037	
1741001792579	0.028686523	
1741001792580	0.05142212	
1741001792581	0.052947998	
1741001792582	-0.0090789795	
1741001792583	-0.04966736	
1741001792584	-0.017471313	
1741001792585	0.040664673	
1741001792586	0.033950806	
1741001792587	-0.010681152	
1741001792588	-0.008621216	
1741001792589	0.0012207031	
1741001792590	-0.017242432	
1741001792591	-0.035095215	
1741001792592	0.0021362305	
1741001792593	0.0541687	
1741001792594	0.055236816	
1741001792595	0.0017547607	
1741001792596	-0.021820068	
1741001792597	-0.0011444092	
1741001792598	-0.004119873	
1741001792599	-0.009155273	
1741001792600	-0.021514893	
1741001792601	-0.02609253	
1741001792602	0.0038909912	
1741001792603	0.018157959	
1741001792604	0.006790161	
1741001792605	-0.0315094	
1741001792606	-0.06309509	
1741001792607	-0.009918213	
1741001792608	0.020523071	
1741001792609	-0.033416748	
1741001792610	-0.01663208	
1741001792611	0.031280518	
1741001792612	0.004348755	
1741001792613	-0.030899048	
1741001792614	-0.02243042	
1741001792615	0.017471313	
1741001792616	0.04058838	
1741001792617	0.04333496	
1741001792618	0.029830933	
1741001792619	-0.014877319	
1741001792620	-0.08262634	
1741001792621	-0.0844574	
1741001792622	0.02281189	
1741001792623	0.042800903	
1741001792624	-0.010299683	
1741001792625	0.02609253	
1741001792626	0.026245117	
1741001792627	-0.012435913	
1741001792628	-0.012664795	
1741001792629	0.014953613	
1741001792630	0.024642944	
1741001792631	0.0050354004	
1741001792632	0.030670166	
1741001792633	0.035247803	
1741001792634	-0.018234253	
1741001792635	-0.045318604	
1741001792636	0.006790161	
1741001792637	0.039901733	
1741001792638	-0.01449585	
1741001792639	-0.01663208	
1741001792640	0.0029754639	
1741001792641	-0.01083374	
1741001792642	0.012817383	
1741001792643	0.037460327	
1741001792644	0.044555664	
1741001792645	0.008087158	
1741001792646	-0.044631958	
1741001792647	-0.03227234	
1741001792648	0.0030517578	
1741001792649	0.009384155	
1741001792650	9.918213E-4	
1741001792651	0.0037384033	
1741001792652	-0.0032043457	
1741001792653	-0.02357483	
1741001792654	-0.036468506	
1741001792655	-0.01838684	
1741001792656	-0.0038146973	
1741001792657	-0.007247925	
1741001792658	0.010604858	
1741001792659	0.021362305	
1741001792660	0.0554657	
1741001792661	0.086517334	
1741001792662	0.027008057	
1741001792663	-0.04119873	
1741001792664	-0.045166016	
1741001792665	-0.03944397	
1741001792666	-0.06637573	
1741001792667	-0.032043457	
1741001792668	0.0010681152	
1741001792669	-0.029144287	
1741001792670	-0.04371643	
1741001792671	-0.038146973	
1741001792672	0.024032593	
1741001792673	0.04966736	
1741001792674	0.033416748	
1741001792675	0.048980713	
1741001792676	0.049438477	
1741001792677	0.041885376	
1741001792678	0.057296753	
1741001792679	0.083236694	
1741001792680	-0.010528564	
1741001792681	-0.18035889	
1741001792682	-0.18867493	
1741001792683	-0.029144287	
1741001792684	0.060958862	
1741001792685	0.05645752	
1741001792686	0.081329346	
1741001792687	0.09605408	
1741001792688	0.09979248	
1741001792689	-0.012588501	
1741001792690	-0.13832092	
1741001792691	-0.054779053	
1741001792692	-0.012588501	
1741001792693	-0.098724365	
1741001792694	-0.078125	
1741001792695	0.107040405	
1741001792696	0.17463684	
1741001792697	0.072784424	
1741001792698	0.04562378	
1741001792699	0.007019043	
1741001792700	-0.074157715	
1741001792701	-0.06355286	
1741001792702	0.004196167	
1741001792703	0.02067566	
1741001792704	-0.013809204	
1741001792705	-0.05683899	
1741001792706	-0.14686584	
1741001792707	-0.18569946	
1741001792708	-0.12207031	
1741001792709	-0.012435913	
1741001792710	0.17425537	
1741001792711	0.30151367	
1741001792712	0.23384094	
1741001792713	0.17066956	
1741001792714	0.15022278	
1741001792715	-0.08552551	
1741001792716	-0.27313232	
1741001792717	-0.16784668	
1741001792718	-0.07476807	
1741001792719	-0.023651123	
1741001792720	0.0146484375	
1741001792721	-0.06362915	
1741001792722	-0.105285645	
1741001792723	-0.08598328	
1741001792724	-0.060043335	
1741001792725	0.043258667	
1741001792726	0.16929626	
1741001792727	0.16433716	
1741001792728	0.08308411	
1741001792729	0.08041382	
1741001792730	0.04508972	
1741001792731	-0.026245117	
1741001792732	0.016860962	
1741001792733	0.011138916	
1741001792734	-0.10620117	
1741001792735	-0.17623901	
1741001792736	-0.07865906	
1741001792737	0.1373291	
1741001792738	0.14976501	
1741001792739	-0.04386902	
1741001792740	-0.11314392	
1741001792741	-0.011444092	
1741001792742	-0.025100708	
1741001792743	-0.12084961	
1741001792744	-0.05935669	
1741001792745	0.041122437	
1741001792746	0.03868103	
1741001792747	-0.06591797	
1741001792748	-0.046539307	
1741001792749	0.025177002	
1741001792750	-0.0075531006	
1741001792751	0.026626587	
1741001792752	-0.0048828125	
1741001792753	-0.07369995	
1741001792754	-0.0769043	
1741001792755	-0.0705719	
1741001792756	-0.0022125244	
1741001792757	0.054779053	
1741001792758	0.112075806	
1741001792759	0.23246765	
1741001792760	0.29060364	
1741001792761	0.26542664	
1741001792762	0.13710022	
1741001792763	0.029296875	
1741001792764	0.13320923	
