# OpenSignals Text File Format
# {"00:80:E1:26:9F:85":{"sensor":["EMG"],"device name":"00:80:E1:26:9F:85","column":["timestamp","EMG"],"sync interval":2,"time":"09:22:30","comments":"","keywords":"","device connection":"BLE00:80:E1:26:9F:85","channels":[0],"date":"2025-03-14","mode":0,"digital IO":[],"firmware version":259,"device":"musclebanplux","position":0,"sampling rate":1000,"label":["EMG"],"resolution":[16],"special":[{}],"sleeve color":["UNKNOWN"]}}
# EndOfHeader
1741940551164	0.004119873	
1741940551165	0.004119873	
1741940551166	-0.013885498	
1741940551167	-0.02456665	
1741940551168	-0.010986328	
1741940551169	0.00869751	
1741940551170	0.016708374	
1741940551171	0.016860962	
1741940551172	0.012207031	
1741940551173	-0.0024414062	
1741940551174	-0.010147095	
1741940551175	-0.00579834	
1741940551176	-0.006866455	
1741940551177	-0.008468628	
1741940551178	-0.0051879883	
1741940551179	-6.1035156E-4	
1741940551180	0.0051116943	
1741940551181	0.0073242188	
1741940551182	0.008773804	
1741940551183	0.013046265	
1741940551184	0.011367798	
1741940551185	0.00793457	
1741940551186	0.005340576	
1741940551187	-0.0051879883	
1741940551188	-0.011749268	
1741940551189	-0.010986328	
1741940551190	-0.010070801	
1741940551191	-0.007858276	
1741940551192	-0.007247925	
1741940551193	-0.0061035156	
1741940551194	2.2888184E-4	
1741940551195	0.0046539307	
1741940551196	6.1035156E-4	
1741940551197	-0.002670288	
1741940551198	-0.001373291	
1741940551199	-5.340576E-4	
1741940551200	-0.0019073486	
1741940551201	0.0034332275	
1741940551202	0.009002686	
1741940551203	0.0051879883	
1741940551204	0.0060272217	
1741940551205	9.918213E-4	
1741940551206	-0.007019043	
1741940551207	0.0032043457	
1741940551208	0.01449585	
1741940551209	0.011138916	
1741940551210	0.0022888184	
1741940551211	7.6293945E-4	
1741940551212	-0.0025939941	
1741940551213	-0.007095337	
1741940551214	-0.0033569336	
1741940551215	-0.002822876	
1741940551216	-0.004119873	
1741940551217	-0.0030517578	
1741940551218	-3.8146973E-4	
1741940551219	-0.0012207031	
1741940551220	-0.009384155	
1741940551221	-0.012893677	
1741940551222	-0.0020599365	
1741940551223	0.013122559	
1741940551224	0.012741089	
1741940551225	0.0025177002	
1741940551226	-0.0025939941	
1741940551227	-0.0010681152	
1741940551228	0.0050354004	
1741940551229	0.001449585	
1741940551230	-0.0077819824	
1741940551231	-0.008392334	
1741940551232	-0.007858276	
1741940551233	-0.004043579	
1741940551234	0.0017547607	
1741940551235	-0.0016784668	
1741940551236	-0.0061798096	
1741940551237	-0.0015258789	
1741940551238	0.00869751	
1741940551239	0.013046265	
1741940551240	0.011062622	
1741940551241	0.005340576	
1741940551242	-5.340576E-4	
1741940551243	-0.004272461	
1741940551244	-0.004119873	
1741940551245	-0.001449585	
1741940551246	-0.0021362305	
1741940551247	8.392334E-4	
1741940551248	0.00289917	
1741940551249	0.002670288	
1741940551250	0.0021362305	
1741940551251	-0.0019073486	
1741940551252	-0.0017547607	
1741940551253	-7.6293945E-5	
1741940551254	0.001373291	
1741940551255	6.866455E-4	
1741940551256	-0.0034332275	
1741940551257	-0.0032806396	
1741940551258	3.8146973E-4	
1741940551259	2.2888184E-4	
1741940551260	-0.0037384033	
1741940551261	0.0010681152	
1741940551262	0.005264282	
1741940551263	6.866455E-4	
1741940551264	-7.6293945E-5	
1741940551265	-8.392334E-4	
1741940551266	-0.004348755	
1741940551267	-0.0038146973	
1741940551268	7.6293945E-5	
1741940551269	4.5776367E-4	
1741940551270	-0.0019836426	
1741940551271	-0.0010681152	
1741940551272	0.0025939941	
1741940551273	0.005340576	
1741940551274	0.005493164	
1741940551275	0.0012969971	
1741940551276	-0.0077056885	
1741940551277	-0.008468628	
1741940551278	-3.8146973E-4	
1741940551279	-0.0025177002	
1741940551280	-0.00579834	
1741940551281	-3.8146973E-4	
1741940551282	0.00289917	
1741940551283	0.007858276	
1741940551284	0.008850098	
1741940551285	-0.005340576	
1741940551286	-0.008926392	
1741940551287	9.1552734E-4	
1741940551288	0.002670288	
1741940551289	0.0046539307	
1741940551290	0.0015258789	
1741940551291	-0.0010681152	
1741940551292	0.005569458	
1741940551293	0.0066375732	
1741940551294	0.0029754639	
1741940551295	7.6293945E-5	
1741940551296	0.0029754639	
1741940551297	0.002746582	
1741940551298	-0.0031280518	
1741940551299	-0.008544922	
1741940551300	-0.01159668	
1741940551301	-0.007095337	
1741940551302	-0.0012207031	
1741940551303	0.0050354004	
1741940551304	0.007171631	
1741940551305	0.0074768066	
1741940551306	0.009307861	
1741940551307	0.001373291	
1741940551308	-9.918213E-4	
1741940551309	0.0016784668	
1741940551310	-0.008163452	
1741940551311	-0.0090789795	
1741940551312	0.0017547607	
1741940551313	0.005569458	
1741940551314	-9.1552734E-4	
1741940551315	-0.012283325	
1741940551316	-0.011062622	
1741940551317	-0.004272461	
1741940551318	-0.0018310547	
1741940551319	0.0032806396	
1741940551320	6.866455E-4	
1741940551321	-0.002746582	
1741940551322	-0.0021362305	
1741940551323	-6.866455E-4	
1741940551324	0.0038146973	
1741940551325	0.002822876	
1741940551326	0.005874634	
1741940551327	0.008087158	
1741940551328	0.006942749	
1741940551329	0.005645752	
1741940551330	-0.007858276	
1741940551331	-0.011749268	
1741940551332	0.0016021729	
1741940551333	0.015640259	
1741940551334	0.010910034	
1741940551335	-0.008010864	
1741940551336	-0.0032043457	
1741940551337	0.0038146973	
1741940551338	-0.0049591064	
1741940551339	-0.0063323975	
1741940551340	0.0025177002	
1741940551341	0.008621216	
1741940551342	0.001449585	
1741940551343	-0.0048065186	
1741940551344	-0.0061798096	
1741940551345	-0.005569458	
1741940551346	-0.0024414062	
1741940551347	-9.1552734E-4	
1741940551348	0.0074768066	
1741940551349	0.0032806396	
1741940551350	-0.0065612793	
1741940551351	0.002822876	
1741940551352	0.0024414062	
1741940551353	4.5776367E-4	
1741940551354	0.004501343	
1741940551355	-0.0034332275	
1741940551356	-0.0016784668	
1741940551357	0.0030517578	
1741940551358	6.1035156E-4	
1741940551359	5.340576E-4	
1741940551360	-0.0038146973	
1741940551361	-0.005874634	
1741940551362	-0.0065612793	
1741940551363	-0.0038909912	
1741940551364	0.005493164	
1741940551365	0.0036621094	
1741940551366	-7.6293945E-4	
1741940551367	-4.5776367E-4	
1741940551368	-0.0048065186	
1741940551369	-0.008010864	
1741940551370	-0.005569458	
1741940551371	0.0012207031	
1741940551372	0.005874634	
1741940551373	0.005340576	
1741940551374	0.001449585	
1741940551375	0.0037384033	
1741940551376	0.008773804	
1741940551377	0.0035858154	
1741940551378	0.0025939941	
1741940551379	3.0517578E-4	
1741940551380	-0.0065612793	
1741940551381	-0.0031280518	
1741940551382	-0.0012207031	
1741940551383	-0.0050354004	
1741940551384	-0.0036621094	
1741940551385	0.004501343	
1741940551386	0.0061798096	
1741940551387	0.0036621094	
1741940551388	0.0036621094	
1741940551389	-0.0030517578	
1741940551390	-0.00541687	
1741940551391	-0.0019073486	
1741940551392	-0.0025177002	
1741940551393	0.0012207031	
1741940551394	0.0030517578	
1741940551395	-6.1035156E-4	
1741940551396	-0.0018310547	
1741940551397	-0.0022125244	
1741940551398	-0.0034332275	
1741940551399	-0.0022888184	
1741940551400	0.0061035156	
1741940551401	0.0046539307	
1741940551402	-0.0020599365	
1741940551403	-0.0011444092	
1741940551404	-0.005645752	
1741940551405	-0.007095337	
1741940551406	-0.0066375732	
1741940551407	-0.005569458	
1741940551408	-3.8146973E-4	
1741940551409	0.013427734	
1741940551410	0.03211975	
1741940551411	0.02281189	
1741940551412	0.0012207031	
1741940551413	-0.0038909912	
1741940551414	-0.009613037	
1741940551415	-0.014953613	
1741940551416	-0.007247925	
1741940551417	-0.0012969971	
1741940551418	-0.0034332275	
1741940551419	-0.0016784668	
1741940551420	-0.002822876	
1741940551421	-0.007019043	
1741940551422	-0.0074768066	
1741940551423	-0.010375977	
1741940551424	-0.0046539307	
1741940551425	0.0064849854	
1741940551426	0.002822876	
1741940551427	-0.006713867	
1741940551428	-0.0061798096	
1741940551429	-0.0022125244	
1741940551430	0.0019073486	
1741940551431	0.006713867	
1741940551432	0.009002686	
1741940551433	0.017852783	
1741940551434	0.02746582	
1741940551435	0.024032593	
1741940551436	0.011138916	
1741940551437	-0.00869751	
1741940551438	-0.014038086	
1741940551439	-0.005493164	
1741940551440	-0.0090789795	
1741940551441	-0.008163452	
1741940551442	-0.005569458	
1741940551443	-0.009918213	
1741940551444	-0.0047302246	
1741940551445	-0.008926392	
1741940551446	-0.016860962	
1741940551447	-0.0064086914	
1741940551448	-0.0036621094	
1741940551449	-9.1552734E-4	
1741940551450	0.016708374	
1741940551451	0.010299683	
1741940551452	7.6293945E-5	
1741940551453	0.011062622	
1741940551454	0.005874634	
1741940551455	-0.0015258789	
1741940551456	0.0025939941	
1741940551457	3.0517578E-4	
1741940551458	-0.004119873	
1741940551459	-0.010070801	
1741940551460	-0.005645752	
1741940551461	-6.866455E-4	
1741940551462	-0.004425049	
1741940551463	0.0050354004	
1741940551464	0.012664795	
1741940551465	0.011138916	
1741940551466	0.008392334	
1741940551467	0.0033569336	
1741940551468	0.0050354004	
1741940551469	0.0012207031	
1741940551470	-0.00579834	
1741940551471	-0.007858276	
1741940551472	-0.010910034	
1741940551473	-0.0025177002	
1741940551474	0.0016784668	
1741940551475	-0.0018310547	
1741940551476	7.6293945E-5	
1741940551477	-0.0037384033	
1741940551478	-0.0049591064	
1741940551479	-0.005493164	
1741940551480	-0.0077819824	
1741940551481	-0.0010681152	
1741940551482	0.002670288	
1741940551483	8.392334E-4	
1741940551484	0.00289917	
1741940551485	0.0022888184	
1741940551486	-0.0021362305	
1741940551487	0.0015258789	
1741940551488	0.00793457	
1741940551489	0.0065612793	
1741940551490	0.0016784668	
1741940551491	-9.1552734E-4	
1741940551492	-7.6293945E-5	
1741940551493	-0.0032043457	
1741940551494	-0.010757446	
1741940551495	-0.008544922	
1741940551496	-1.5258789E-4	
1741940551497	0.0051879883	
1741940551498	0.006713867	
1741940551499	0.0047302246	
1741940551500	9.918213E-4	
1741940551501	0.0031280518	
1741940551502	0.01449585	
1741940551503	0.010528564	
1741940551504	-4.5776367E-4	
1741940551505	0.0016021729	
1741940551506	-0.006866455	
1741940551507	-0.008087158	
1741940551508	-2.2888184E-4	
1741940551509	-0.006790161	
1741940551510	-0.005569458	
1741940551511	-0.0021362305	
1741940551512	-0.004501343	
1741940551513	-4.5776367E-4	
1741940551514	0.0037384033	
1741940551515	0.0038909912	
1741940551516	0.0033569336	
1741940551517	0.005569458	
1741940551518	-6.1035156E-4	
1741940551519	-0.011520386	
1741940551520	-0.009536743	
1741940551521	-0.0118255615	
1741940551522	-0.0047302246	
1741940551523	0.01701355	
1741940551524	0.015182495	
1741940551525	0.003967285	
1741940551526	0.0017547607	
1741940551527	0.0	
1741940551528	9.1552734E-4	
1741940551529	-0.0021362305	
1741940551530	-0.010223389	
1741940551531	-0.00793457	
1741940551532	0.0023651123	
1741940551533	0.0046539307	
1741940551534	-0.0019073486	
1741940551535	-0.005645752	
1741940551536	-0.004425049	
1741940551537	-0.0037384033	
1741940551538	-0.0015258789	
1741940551539	-0.0030517578	
1741940551540	-0.0021362305	
1741940551541	0.0051116943	
1741940551542	8.392334E-4	
1741940551543	0.0017547607	
1741940551544	0.0029754639	
1741940551545	0.0016784668	
1741940551546	0.005722046	
1741940551547	0.0021362305	
1741940551548	0.011520386	
1741940551549	0.016479492	
1741940551550	0.005645752	
1741940551551	-0.0019836426	
1741940551552	-0.010604858	
1741940551553	-0.017547607	
1741940551554	-0.014724731	
1741940551555	-0.0024414062	
1741940551556	-7.6293945E-4	
1741940551557	7.6293945E-4	
1741940551558	0.014190674	
1741940551559	0.020751953	
1741940551560	0.015640259	
1741940551561	0.004425049	
1741940551562	-0.0033569336	
1741940551563	-0.010070801	
1741940551564	-0.011672974	
1741940551565	-0.0045776367	
1741940551566	-0.004043579	
1741940551567	-0.009689331	
1741940551568	-0.015945435	
1741940551569	-0.014190674	
1741940551570	0.001373291	
1741940551571	0.010681152	
1741940551572	0.0118255615	
1741940551573	0.011672974	
1741940551574	0.0073242188	
1741940551575	0.0032043457	
1741940551576	-6.866455E-4	
1741940551577	-0.0024414062	
1741940551578	-0.010604858	
1741940551579	-0.012817383	
1741940551580	7.6293945E-5	
1741940551581	-0.0025177002	
1741940551582	-0.0047302246	
1741940551583	0.0062561035	
1741940551584	0.0032043457	
1741940551585	0.0	
1741940551586	-6.866455E-4	
1741940551587	-0.005874634	
1741940551588	7.6293945E-4	
1741940551589	0.00579834	
1741940551590	0.004196167	
1741940551591	0.012130737	
1741940551592	0.0104522705	
1741940551593	-0.001373291	
1741940551594	0.0012207031	
1741940551595	9.918213E-4	
1741940551596	-0.0060272217	
1741940551597	-0.0062561035	
1741940551598	-0.004196167	
1741940551599	0.0018310547	
1741940551600	0.0064849854	
1741940551601	0.002822876	
1741940551602	-0.0032806396	
1741940551603	-0.009231567	
1741940551604	-0.007247925	
1741940551605	0.0046539307	
1741940551606	0.009689331	
1741940551607	0.0074768066	
1741940551608	-9.918213E-4	
1741940551609	-0.010604858	
1741940551610	-0.012359619	
1741940551611	-0.0048828125	
1741940551612	4.5776367E-4	
1741940551613	-9.918213E-4	
1741940551614	0.005569458	
1741940551615	0.0074768066	
1741940551616	0.004272461	
1741940551617	-0.0047302246	
1741940551618	-0.01335144	
1741940551619	-0.0034332275	
1741940551620	0.0020599365	
1741940551621	0.0051116943	
1741940551622	0.0036621094	
1741940551623	-0.0010681152	
1741940551624	0.0022888184	
1741940551625	0.0021362305	
1741940551626	0.009841919	
1741940551627	0.009460449	
1741940551628	-0.0037384033	
1741940551629	-0.0074005127	
1741940551630	-0.0021362305	
1741940551631	0.002670288	
1741940551632	-0.001449585	
1741940551633	2.2888184E-4	
1741940551634	-9.918213E-4	
1741940551635	-0.004501343	
1741940551636	3.0517578E-4	
1741940551637	-6.1035156E-4	
1741940551638	0.003967285	
1741940551639	0.0062561035	
1741940551640	-5.340576E-4	
1741940551641	0.0010681152	
1741940551642	0.0021362305	
1741940551643	-3.0517578E-4	
1741940551644	6.1035156E-4	
1741940551645	-0.002746582	
1741940551646	-0.008850098	
1741940551647	-0.010070801	
1741940551648	-0.016479492	
1741940551649	-0.018539429	
1741940551650	-0.0019836426	
1741940551651	0.024414062	
1741940551652	0.02822876	
1741940551653	0.011062622	
1741940551654	0.010604858	
1741940551655	0.0015258789	
1741940551656	-0.012054443	
1741940551657	-0.0019073486	
1741940551658	0.0010681152	
1741940551659	1.5258789E-4	
1741940551660	-0.0023651123	
1741940551661	-0.010986328	
1741940551662	-0.009307861	
1741940551663	-0.0074768066	
1741940551664	-0.012512207	
1741940551665	-0.011520386	
1741940551666	0.004272461	
1741940551667	0.016021729	
1741940551668	0.0064086914	
1741940551669	0.0060272217	
1741940551670	0.009307861	
1741940551671	-0.004272461	
1741940551672	-0.0038146973	
1741940551673	-0.004119873	
1741940551674	-0.008773804	
1741940551675	-9.918213E-4	
1741940551676	6.1035156E-4	
1741940551677	0.0024414062	
1741940551678	0.0048065186	
1741940551679	0.005264282	
1741940551680	0.0063323975	
1741940551681	0.00541687	
1741940551682	6.1035156E-4	
1741940551683	-0.0077056885	
1741940551684	7.6293945E-5	
1741940551685	0.005264282	
1741940551686	-0.0012207031	
1741940551687	-2.2888184E-4	
1741940551688	0.001373291	
1741940551689	0.006790161	
1741940551690	0.0048065186	
1741940551691	-0.010910034	
1741940551692	-0.0038146973	
1741940551693	0.010070801	
1741940551694	-0.001373291	
1741940551695	-0.013046265	
1741940551696	-0.015258789	
1741940551697	-0.0074005127	
1741940551698	0.0059509277	
1741940551699	0.0065612793	
1741940551700	0.007247925	
1741940551701	0.009002686	
1741940551702	0.0016784668	
1741940551703	0.0037384033	
1741940551704	0.003967285	
1741940551705	-0.003967285	
1741940551706	-0.005264282	
1741940551707	-0.005569458	
1741940551708	-0.004043579	
1741940551709	-0.00289917	
1741940551710	-0.0035858154	
1741940551711	-0.0075531006	
1741940551712	-0.007095337	
1741940551713	-0.0034332275	
1741940551714	-0.008163452	
1741940551715	0.0060272217	
1741940551716	0.023727417	
1741940551717	0.010986328	
1741940551718	-0.0061035156	
1741940551719	-0.005569458	
1741940551720	0.0033569336	
1741940551721	0.005340576	
1741940551722	0.0032806396	
1741940551723	0.0032043457	
1741940551724	0.0047302246	
1741940551725	0.0019073486	
1741940551726	-0.0061798096	
1741940551727	-0.009460449	
1741940551728	-0.0047302246	
1741940551729	0.0011444092	
1741940551730	0.002822876	
1741940551731	-0.0016784668	
1741940551732	-0.007171631	
1741940551733	-0.0032043457	
1741940551734	-0.004501343	
1741940551735	-0.0063323975	
1741940551736	0.004348755	
1741940551737	0.0032043457	
1741940551738	3.8146973E-4	
1741940551739	0.004425049	
1741940551740	0.0030517578	
1741940551741	0.0025177002	
1741940551742	0.0022888184	
1741940551743	0.0021362305	
1741940551744	0.007095337	
1741940551745	0.015640259	
1741940551746	0.005569458	
1741940551747	-0.008239746	
1741940551748	-0.001449585	
1741940551749	-0.0050354004	
1741940551750	-0.008850098	
1741940551751	0.0030517578	
1741940551752	0.0011444092	
1741940551753	-0.006713867	
1741940551754	-0.0062561035	
1741940551755	-0.00289917	
1741940551756	-3.8146973E-4	
1741940551757	-0.0011444092	
1741940551758	0.00289917	
1741940551759	0.0050354004	
1741940551760	0.0031280518	
1741940551761	-0.0022125244	
1741940551762	-0.0064086914	
1741940551763	-0.0051116943	
1741940551764	-0.008621216	
1741940551765	-0.01335144	
1741940551766	-0.0066375732	
1741940551767	0.013427734	
1741940551768	0.019683838	
1741940551769	0.008010864	
1741940551770	0.0022125244	
1741940551771	0.0016021729	
1741940551772	0.007019043	
1741940551773	0.005874634	
1741940551774	-0.0049591064	
1741940551775	-0.0063323975	
1741940551776	-0.010528564	
1741940551777	-0.01411438	
1741940551778	-0.005569458	
1741940551779	0.0022125244	
1741940551780	0.0061798096	
1741940551781	0.0025177002	
1741940551782	0.0076293945	
1741940551783	0.013656616	
1741940551784	0.002746582	
1741940551785	-0.006713867	
1741940551786	-0.014953613	
1741940551787	-0.010681152	
1741940551788	-0.0010681152	
1741940551789	0.0012207031	
1741940551790	0.009689331	
1741940551791	0.008621216	
1741940551792	0.003967285	
1741940551793	0.0024414062	
1741940551794	-0.0012969971	
1741940551795	0.0019073486	
1741940551796	0.0020599365	
1741940551797	0.0011444092	
1741940551798	-1.5258789E-4	
1741940551799	-0.0065612793	
1741940551800	-0.0060272217	
1741940551801	-0.0023651123	
1741940551802	-0.0050354004	
1741940551803	-0.0046539307	
1741940551804	0.005645752	
1741940551805	0.004196167	
1741940551806	-0.006942749	
1741940551807	-0.0029754639	
1741940551808	0.0016784668	
1741940551809	0.0036621094	
1741940551810	0.004348755	
1741940551811	-0.0038146973	
1741940551812	-0.0038909912	
1741940551813	-0.0011444092	
1741940551814	-6.866455E-4	
1741940551815	0.00289917	
1741940551816	0.0018310547	
1741940551817	0.0038146973	
1741940551818	0.0064849854	
1741940551819	0.001373291	
1741940551820	0.0018310547	
1741940551821	0.005645752	
1741940551822	0.0016784668	
1741940551823	0.0035095215	
1741940551824	0.0029754639	
1741940551825	-0.0064849854	
1741940551826	-0.010604858	
1741940551827	-0.012588501	
1741940551828	-0.0017547607	
1741940551829	0.010757446	
1741940551830	0.0077819824	
1741940551831	0.011672974	
1741940551832	0.004348755	
1741940551833	-0.013961792	
1741940551834	-0.009002686	
1741940551835	-9.1552734E-4	
1741940551836	0.0020599365	
1741940551837	0.0030517578	
1741940551838	-0.004272461	
1741940551839	-0.0063323975	
1741940551840	-0.0019836426	
1741940551841	-0.002822876	
1741940551842	-0.005264282	
1741940551843	-0.0034332275	
1741940551844	-0.0038146973	
1741940551845	2.2888184E-4	
1741940551846	0.004501343	
1741940551847	-0.0030517578	
1741940551848	0.0022888184	
1741940551849	0.0051116943	
1741940551850	-0.0035095215	
1741940551851	0.0061035156	
1741940551852	0.009155273	
1741940551853	8.392334E-4	
1741940551854	-0.0024414062	
1741940551855	-0.0025177002	
1741940551856	0.006866455	
1741940551857	0.005645752	
1741940551858	-0.0063323975	
1741940551859	-0.0032043457	
1741940551860	0.0048828125	
1741940551861	-3.8146973E-4	
1741940551862	-0.00541687	
1741940551863	0.0024414062	
1741940551864	0.005493164	
1741940551865	0.0034332275	
1741940551866	0.0	
1741940551867	-0.009460449	
1741940551868	-0.009231567	
1741940551869	-0.0016784668	
1741940551870	0.006942749	
1741940551871	0.012512207	
1741940551872	0.0018310547	
1741940551873	-0.0050354004	
1741940551874	0.0012207031	
1741940551875	-6.1035156E-4	
1741940551876	-0.0025177002	
1741940551877	-0.0010681152	
1741940551878	-0.0074005127	
1741940551879	-0.0030517578	
1741940551880	0.0032806396	
1741940551881	9.918213E-4	
1741940551882	0.0031280518	
1741940551883	0.0062561035	
1741940551884	0.004043579	
1741940551885	-7.6293945E-5	
1741940551886	6.1035156E-4	
1741940551887	-0.0037384033	
1741940551888	-0.0118255615	
1741940551889	-0.008392334	
1741940551890	0.0038146973	
1741940551891	0.005569458	
1741940551892	-6.1035156E-4	
1741940551893	0.0019073486	
1741940551894	0.0015258789	
1741940551895	-0.0038146973	
1741940551896	-0.0037384033	
1741940551897	-0.007858276	
1741940551898	-0.0077056885	
1741940551899	0.002670288	
1741940551900	-3.0517578E-4	
1741940551901	7.6293945E-5	
1741940551902	0.009613037	
1741940551903	0.00579834	
1741940551904	0.0031280518	
1741940551905	1.5258789E-4	
1741940551906	-0.0012969971	
1741940551907	0.0016021729	
1741940551908	-7.6293945E-4	
1741940551909	0.007171631	
1741940551910	0.007858276	
1741940551911	-0.0059509277	
1741940551912	-0.0049591064	
1741940551913	-0.0016021729	
1741940551914	-0.0029754639	
1741940551915	-0.0018310547	
1741940551916	-0.0023651123	
1741940551917	0.009918213	
1741940551918	0.016784668	
1741940551919	9.1552734E-4	
1741940551920	-0.002670288	
1741940551921	0.0024414062	
1741940551922	-0.0037384033	
1741940551923	-0.0035095215	
1741940551924	-0.0010681152	
1741940551925	-0.0046539307	
1741940551926	-0.004348755	
1741940551927	-0.0073242188	
1741940551928	-0.01335144	
1741940551929	-0.014724731	
1741940551930	-0.009002686	
1741940551931	0.008239746	
1741940551932	0.012741089	
1741940551933	0.0025177002	
1741940551934	0.0048065186	
1741940551935	0.0061035156	
1741940551936	0.004425049	
1741940551937	0.0049591064	
1741940551938	0.0017547607	
1741940551939	9.918213E-4	
1741940551940	-0.0020599365	
1741940551941	-0.0024414062	
1741940551942	0.0020599365	
1741940551943	0.001373291	
1741940551944	3.0517578E-4	
1741940551945	-0.005874634	
1741940551946	-0.0119018555	
1741940551947	-0.0034332275	
1741940551948	0.004348755	
1741940551949	0.0032806396	
1741940551950	0.001449585	
1741940551951	0.0025939941	
1741940551952	0.0033569336	
1741940551953	-0.0022125244	
1741940551954	-0.00579834	
1741940551955	-0.004348755	
1741940551956	-0.0038909912	
1741940551957	-4.5776367E-4	
1741940551958	0.0046539307	
1741940551959	0.0029754639	
1741940551960	0.0046539307	
1741940551961	0.012283325	
1741940551962	0.005722046	
1741940551963	-0.0045776367	
1741940551964	-0.008010864	
1741940551965	-0.00579834	
1741940551966	6.866455E-4	
1741940551967	-7.6293945E-4	
1741940551968	0.004501343	
1741940551969	0.0146484375	
1741940551970	0.010299683	
1741940551971	-0.0012207031	
1741940551972	-0.003967285	
1741940551973	-8.392334E-4	
1741940551974	-0.005340576	
1741940551975	-0.009307861	
1741940551976	-0.004196167	
1741940551977	3.0517578E-4	
1741940551978	-0.0012207031	
1741940551979	-0.004119873	
1741940551980	-0.005340576	
1741940551981	-0.008621216	
1741940551982	-0.0048065186	
1741940551983	0.0036621094	
1741940551984	-0.0011444092	
1741940551985	-0.00289917	
1741940551986	0.0049591064	
1741940551987	0.0065612793	
1741940551988	0.0049591064	
1741940551989	0.0033569336	
1741940551990	0.0037384033	
1741940551991	0.0050354004	
1741940551992	6.1035156E-4	
1741940551993	-9.1552734E-4	
1741940551994	8.392334E-4	
1741940551995	-7.6293945E-5	
1741940551996	0.0018310547	
1741940551997	-0.002746582	
1741940551998	-0.0073242188	
1741940551999	-0.0038146973	
1741940552000	-0.0066375732	
1741940552001	-0.006790161	
1741940552002	0.001449585	
1741940552003	0.005493164	
1741940552004	0.0025177002	
1741940552005	0.001449585	
1741940552006	0.0031280518	
1741940552007	7.6293945E-4	
1741940552008	5.340576E-4	
1741940552009	0.0018310547	
1741940552010	0.001373291	
1741940552011	0.0035095215	
1741940552012	0.0029754639	
1741940552013	-0.0018310547	
1741940552014	-0.0021362305	
1741940552015	-0.0024414062	
1741940552016	-0.0023651123	
1741940552017	5.340576E-4	
1741940552018	-3.8146973E-4	
1741940552019	4.5776367E-4	
1741940552020	3.0517578E-4	
1741940552021	9.918213E-4	
1741940552022	0.0030517578	
1741940552023	-0.002670288	
1741940552024	-0.008010864	
1741940552025	-0.0049591064	
1741940552026	8.392334E-4	
1741940552027	-0.002670288	
1741940552028	-0.0019836426	
1741940552029	0.004348755	
1741940552030	0.0061798096	
1741940552031	0.013122559	
1741940552032	0.012588501	
1741940552033	0.0023651123	
1741940552034	-0.0021362305	
1741940552035	-0.0035858154	
1741940552036	-0.007095337	
1741940552037	-0.009918213	
1741940552038	-0.010604858	
1741940552039	-0.006942749	
1741940552040	-0.0035095215	
1741940552041	-0.004272461	
1741940552042	0.0025177002	
1741940552043	0.012207031	
1741940552044	0.020446777	
1741940552045	0.018615723	
1741940552046	-4.5776367E-4	
1741940552047	-0.011749268	
1741940552048	-0.008850098	
1741940552049	-0.002822876	
1741940552050	-0.0029754639	
1741940552051	-0.0075531006	
1741940552052	-0.0051879883	
1741940552053	-0.006866455	
1741940552054	-0.005340576	
1741940552055	0.0021362305	
1741940552056	0.0018310547	
1741940552057	0.0016021729	
1741940552058	5.340576E-4	
1741940552059	-9.1552734E-4	
1741940552060	0.0017547607	
1741940552061	0.0032043457	
1741940552062	0.004196167	
1741940552063	0.0033569336	
1741940552064	0.0021362305	
1741940552065	0.0025177002	
1741940552066	-1.5258789E-4	
1741940552067	-0.0018310547	
1741940552068	-0.0023651123	
1741940552069	-0.0012969971	
1741940552070	-2.2888184E-4	
1741940552071	-0.0038146973	
1741940552072	-0.001373291	
1741940552073	0.0035858154	
1741940552074	0.008392334	
1741940552075	0.0077819824	
1741940552076	1.5258789E-4	
1741940552077	0.0046539307	
1741940552078	0.009307861	
1741940552079	0.0035095215	
1741940552080	-0.0038909912	
1741940552081	-0.00579834	
1741940552082	-0.0046539307	
1741940552083	-0.009384155	
1741940552084	-0.008621216	
1741940552085	-0.00289917	
1741940552086	7.6293945E-5	
1741940552087	3.0517578E-4	
1741940552088	-0.0038146973	
1741940552089	9.918213E-4	
1741940552090	0.0060272217	
1741940552091	0.0011444092	
1741940552092	0.0018310547	
1741940552093	-0.001373291	
1741940552094	-0.0030517578	
1741940552095	0.0023651123	
1741940552096	-0.0029754639	
1741940552097	-0.0037384033	
1741940552098	5.340576E-4	
1741940552099	-0.0019073486	
1741940552100	-0.0019073486	
1741940552101	-0.0025177002	
1741940552102	-1.5258789E-4	
1741940552103	0.004119873	
1741940552104	0.0032043457	
1741940552105	0.0030517578	
1741940552106	0.0024414062	
1741940552107	0.0016784668	
1741940552108	0.0012207031	
1741940552109	8.392334E-4	
1741940552110	0.0032043457	
1741940552111	0.0024414062	
1741940552112	-0.0016021729	
1741940552113	-0.0022888184	
1741940552114	-0.0018310547	
1741940552115	-0.0011444092	
1741940552116	-7.6293945E-5	
1741940552117	-3.8146973E-4	
1741940552118	0.0021362305	
1741940552119	0.004272461	
1741940552120	-0.0021362305	
1741940552121	-0.0046539307	
1741940552122	-0.0010681152	
1741940552123	-0.0031280518	
1741940552124	-6.866455E-4	
1741940552125	-0.001373291	
1741940552126	-0.0047302246	
1741940552127	0.0	
1741940552128	-0.00289917	
1741940552129	-0.0032806396	
1741940552130	9.1552734E-4	
1741940552131	0.0010681152	
1741940552132	0.001373291	
1741940552133	0.0019073486	
1741940552134	0.0064086914	
1741940552135	0.010299683	
1741940552136	0.010986328	
1741940552137	0.00579834	
1741940552138	-0.0046539307	
1741940552139	-0.008926392	
1741940552140	-0.008239746	
1741940552141	-0.004196167	
1741940552142	-5.340576E-4	
1741940552143	-0.0012969971	
1741940552144	0.0031280518	
1741940552145	0.004196167	
1741940552146	-0.004119873	
1741940552147	-0.0019836426	
1741940552148	-3.0517578E-4	
1741940552149	-0.0065612793	
1741940552150	-8.392334E-4	
1741940552151	0.0024414062	
1741940552152	0.0010681152	
1741940552153	0.0030517578	
1741940552154	-0.0017547607	
1741940552155	-0.0022125244	
1741940552156	0.0012969971	
1741940552157	0.0011444092	
1741940552158	0.0036621094	
1741940552159	0.005264282	
1741940552160	0.0047302246	
1741940552161	0.0016784668	
1741940552162	-0.002746582	
1741940552163	-0.0051116943	
1741940552164	-0.006866455	
1741940552165	-4.5776367E-4	
1741940552166	0.0061798096	
1741940552167	0.0020599365	
1741940552168	0.0016784668	
1741940552169	-7.6293945E-5	
1741940552170	-0.005493164	
1741940552171	-0.0025177002	
1741940552172	-0.0016784668	
1741940552173	-0.002746582	
1741940552174	-7.6293945E-5	
1741940552175	0.004272461	
1741940552176	0.0061798096	
1741940552177	-0.001449585	
1741940552178	-0.00289917	
1741940552179	9.918213E-4	
1741940552180	0.0011444092	
1741940552181	0.0032043457	
1741940552182	-0.0017547607	
1741940552183	-0.0045776367	
1741940552184	-0.0024414062	
1741940552185	-0.0023651123	
1741940552186	3.8146973E-4	
1741940552187	-9.918213E-4	
1741940552188	-0.0012207031	
1741940552189	9.1552734E-4	
1741940552190	-2.2888184E-4	
1741940552191	0.0032043457	
1741940552192	0.0062561035	
1741940552193	0.002746582	
1741940552194	-0.002822876	
1741940552195	-0.0038909912	
1741940552196	-0.0012207031	
1741940552197	-3.0517578E-4	
1741940552198	0.0015258789	
1741940552199	0.004348755	
1741940552200	-2.2888184E-4	
1741940552201	-0.0064086914	
1741940552202	-0.0061035156	
1741940552203	-0.0024414062	
1741940552204	0.005264282	
1741940552205	0.011291504	
1741940552206	0.0077056885	
1741940552207	-0.002822876	
1741940552208	-0.009231567	
1741940552209	-0.0064849854	
1741940552210	-8.392334E-4	
1741940552211	0.00541687	
1741940552212	0.00579834	
1741940552213	-0.0019073486	
1741940552214	-0.004272461	
1741940552215	-1.5258789E-4	
1741940552216	0.0048065186	
1741940552217	0.0048065186	
1741940552218	-0.0012207031	
1741940552219	-0.0048828125	
1741940552220	-0.0032806396	
1741940552221	-0.001373291	
1741940552222	-0.0032043457	
1741940552223	-0.0031280518	
1741940552224	-9.918213E-4	
1741940552225	4.5776367E-4	
1741940552226	-0.0010681152	
1741940552227	-0.0048828125	
1741940552228	0.0034332275	
1741940552229	0.011520386	
1741940552230	0.0064086914	
1741940552231	0.0060272217	
1741940552232	0.00541687	
1741940552233	-0.00289917	
1741940552234	-0.006942749	
1741940552235	-0.0051879883	
1741940552236	-0.0048065186	
1741940552237	-0.004501343	
1741940552238	6.866455E-4	
1741940552239	0.0	
1741940552240	0.0012207031	
1741940552241	0.008392334	
1741940552242	9.1552734E-4	
1741940552243	-0.0025177002	
1741940552244	6.866455E-4	
1741940552245	-0.0047302246	
1741940552246	-9.1552734E-4	
1741940552247	5.340576E-4	
1741940552248	-0.0019836426	
1741940552249	0.0032043457	
1741940552250	-0.0025939941	
1741940552251	-0.0051116943	
1741940552252	1.5258789E-4	
1741940552253	-0.0024414062	
1741940552254	4.5776367E-4	
1741940552255	0.002822876	
1741940552256	0.0050354004	
1741940552257	0.0045776367	
1741940552258	-0.0036621094	
1741940552259	-7.6293945E-5	
1741940552260	0.0035095215	
1741940552261	-0.0016021729	
1741940552262	-0.001449585	
1741940552263	0.0	
1741940552264	-0.002746582	
1741940552265	-0.0029754639	
1741940552266	0.008087158	
1741940552267	0.01625061	
1741940552268	0.0046539307	
1741940552269	-0.009841919	
1741940552270	-0.009155273	
1741940552271	-0.0029754639	
1741940552272	-0.0017547607	
1741940552273	2.2888184E-4	
1741940552274	0.004501343	
1741940552275	0.008087158	
1741940552276	0.0010681152	
1741940552277	-0.009536743	
1741940552278	-0.004501343	
1741940552279	-0.0046539307	
1741940552280	-0.0077056885	
1741940552281	-0.0016021729	
1741940552282	2.2888184E-4	
1741940552283	0.002822876	
1741940552284	-0.0012969971	
1741940552285	-0.002746582	
1741940552286	0.0019836426	
1741940552287	3.0517578E-4	
1741940552288	0.0015258789	
1741940552289	0.0038909912	
1741940552290	0.0022125244	
1741940552291	-0.00289917	
1741940552292	-1.5258789E-4	
1741940552293	0.0035858154	
1741940552294	6.1035156E-4	
1741940552295	0.0016784668	
1741940552296	0.0047302246	
1741940552297	0.0035858154	
1741940552298	-0.0016784668	
1741940552299	-0.001373291	
1741940552300	-0.0020599365	
1741940552301	-0.0022125244	
1741940552302	0.0060272217	
1741940552303	0.004043579	
1741940552304	9.1552734E-4	
1741940552305	0.0036621094	
1741940552306	6.1035156E-4	
1741940552307	3.0517578E-4	
1741940552308	0.0035858154	
1741940552309	0.0061798096	
1741940552310	0.0045776367	
1741940552311	-0.0064086914	
1741940552312	-0.010986328	
1741940552313	-0.006942749	
1741940552314	-0.0074005127	
1741940552315	-0.004196167	
1741940552316	-0.0016784668	
1741940552317	-0.0051879883	
1741940552318	-0.0062561035	
1741940552319	-0.0037384033	
1741940552320	0.001373291	
1741940552321	0.0076293945	
1741940552322	0.0063323975	
1741940552323	1.5258789E-4	
1741940552324	0.004119873	
1741940552325	6.866455E-4	
1741940552326	-0.006866455	
1741940552327	-0.001449585	
1741940552328	-0.0016784668	
1741940552329	2.2888184E-4	
1741940552330	0.0064849854	
1741940552331	0.007858276	
1741940552332	0.001449585	
1741940552333	-0.0060272217	
1741940552334	-9.1552734E-4	
1741940552335	-0.0020599365	
1741940552336	-0.0022888184	
1741940552337	0.0022125244	
1741940552338	0.0022125244	
1741940552339	0.0077056885	
1741940552340	0.0032806396	
1741940552341	5.340576E-4	
1741940552342	0.00541687	
1741940552343	-7.6293945E-4	
1741940552344	-0.0022125244	
1741940552345	-0.0031280518	
1741940552346	-0.0022888184	
1741940552347	0.0010681152	
1741940552348	-0.005722046	
1741940552349	-6.1035156E-4	
1741940552350	0.0046539307	
1741940552351	0.0022125244	
1741940552352	0.0077056885	
1741940552353	4.5776367E-4	
1741940552354	-0.008163452	
1741940552355	-0.007095337	
1741940552356	-0.008392334	
1741940552357	-0.0036621094	
1741940552358	8.392334E-4	
1741940552359	0.0012207031	
1741940552360	-0.0012969971	
1741940552361	-0.0017547607	
1741940552362	-4.5776367E-4	
1741940552363	-0.003967285	
1741940552364	1.5258789E-4	
1741940552365	0.0032043457	
1741940552366	7.6293945E-5	
1741940552367	7.6293945E-5	
1741940552368	9.1552734E-4	
1741940552369	0.002822876	
1741940552370	9.918213E-4	
1741940552371	4.5776367E-4	
1741940552372	0.007095337	
1741940552373	0.0074768066	
1741940552374	0.007019043	
1741940552375	0.01159668	
1741940552376	0.005493164	
1741940552377	-0.0038909912	
1741940552378	-0.007171631	
1741940552379	-0.009155273	
1741940552380	-0.0045776367	
1741940552381	-0.00289917	
1741940552382	-0.00289917	
1741940552383	-0.001449585	
1741940552384	-0.0074768066	
1741940552385	-0.0021362305	
1741940552386	0.0063323975	
1741940552387	2.2888184E-4	
1741940552388	0.0011444092	
1741940552389	0.005722046	
1741940552390	0.0029754639	
1741940552391	-8.392334E-4	
1741940552392	-0.005493164	
1741940552393	-0.004043579	
1741940552394	-0.0015258789	
1741940552395	-0.00579834	
1741940552396	-0.001449585	
1741940552397	0.007019043	
1741940552398	0.0032806396	
1741940552399	-0.0019836426	
1741940552400	-0.0038146973	
1741940552401	-0.002822876	
1741940552402	9.918213E-4	
1741940552403	-1.5258789E-4	
1741940552404	0.002746582	
1741940552405	0.006866455	
1741940552406	8.392334E-4	
1741940552407	-0.0010681152	
1741940552408	0.0047302246	
1741940552409	0.0033569336	
1741940552410	9.918213E-4	
1741940552411	9.1552734E-4	
1741940552412	-0.0017547607	
1741940552413	-0.0022888184	
1741940552414	-0.004272461	
1741940552415	-0.0018310547	
1741940552416	-0.002670288	
1741940552417	-0.006790161	
1741940552418	-7.6293945E-5	
1741940552419	0.0012969971	
1741940552420	0.0032043457	
1741940552421	0.010147095	
1741940552422	0.00793457	
1741940552423	0.004501343	
1741940552424	-0.0019836426	
1741940552425	-0.009765625	
1741940552426	-0.005874634	
1741940552427	-0.0021362305	
1741940552428	-0.0019836426	
1741940552429	-0.0012969971	
1741940552430	-8.392334E-4	
1741940552431	0.0036621094	
1741940552432	0.0020599365	
1741940552433	-5.340576E-4	
1741940552434	1.5258789E-4	
1741940552435	-0.0061035156	
1741940552436	-0.0065612793	
1741940552437	-0.0074768066	
1741940552438	-0.008392334	
1741940552439	0.004272461	
1741940552440	0.006866455	
1741940552441	0.0076293945	
1741940552442	0.011520386	
1741940552443	0.0062561035	
1741940552444	0.00831604	
1741940552445	0.005569458	
1741940552446	8.392334E-4	
1741940552447	-2.2888184E-4	
1741940552448	-0.0076293945	
1741940552449	-0.00793457	
1741940552450	-0.005340576	
1741940552451	-0.0032806396	
1741940552452	-9.918213E-4	
1741940552453	7.6293945E-4	
1741940552454	0.0065612793	
1741940552455	0.006866455	
1741940552456	-0.004196167	
1741940552457	-0.008163452	
1741940552458	-0.0030517578	
1741940552459	-0.0017547607	
1741940552460	0.0032806396	
1741940552461	-0.0023651123	
1741940552462	-0.008926392	
1741940552463	4.5776367E-4	
1741940552464	0.0038146973	
1741940552465	0.007171631	
1741940552466	0.0015258789	
1741940552467	-0.0031280518	
1741940552468	9.1552734E-4	
1741940552469	-0.0062561035	
1741940552470	-7.6293945E-4	
1741940552471	0.002670288	
1741940552472	-0.0010681152	
1741940552473	0.0021362305	
1741940552474	0.0017547607	
1741940552475	0.0051879883	
1741940552476	0.005340576	
1741940552477	8.392334E-4	
1741940552478	-0.0015258789	
1741940552479	-8.392334E-4	
1741940552480	0.0017547607	
1741940552481	0.0	
1741940552482	-0.001449585	
1741940552483	-0.0019836426	
1741940552484	-3.8146973E-4	
1741940552485	7.6293945E-5	
1741940552486	-0.0018310547	
1741940552487	8.392334E-4	
1741940552488	2.2888184E-4	
1741940552489	0.0019836426	
1741940552490	0.0021362305	
1741940552491	-0.002670288	
1741940552492	-0.0019073486	
1741940552493	-0.002670288	
1741940552494	-0.0032806396	
1741940552495	-0.0035095215	
1741940552496	-0.002746582	
1741940552497	-3.0517578E-4	
1741940552498	-0.0025939941	
1741940552499	-3.0517578E-4	
1741940552500	0.0016784668	
1741940552501	-0.0036621094	
1741940552502	-0.0022125244	
1741940552503	0.0012969971	
1741940552504	9.918213E-4	
1741940552505	0.004196167	
1741940552506	0.0061035156	
1741940552507	0.0050354004	
1741940552508	0.0022888184	
1741940552509	0.0030517578	
1741940552510	0.0038909912	
1741940552511	-0.002822876	
1741940552512	-0.0022888184	
1741940552513	0.0011444092	
1741940552514	0.001373291	
1741940552515	7.6293945E-4	
1741940552516	-0.0029754639	
1741940552517	-9.918213E-4	
1741940552518	-0.002822876	
1741940552519	-0.003967285	
1741940552520	0.0038146973	
1741940552521	-9.918213E-4	
1741940552522	-0.005874634	
1741940552523	-6.1035156E-4	
1741940552524	0.0020599365	
1741940552525	0.0074005127	
1741940552526	0.0104522705	
1741940552527	0.0062561035	
1741940552528	0.001373291	
1741940552529	-0.0048065186	
1741940552530	-0.008239746	
1741940552531	-0.00831604	
1741940552532	-0.0077819824	
1741940552533	-0.002670288	
1741940552534	-5.340576E-4	
1741940552535	-0.0019073486	
1741940552536	-5.340576E-4	
1741940552537	-0.0016021729	
1741940552538	-0.0037384033	
1741940552539	0.001373291	
1741940552540	0.0077819824	
1741940552541	0.0060272217	
1741940552542	8.392334E-4	
1741940552543	-9.918213E-4	
1741940552544	0.0	
1741940552545	0.0011444092	
1741940552546	-8.392334E-4	
1741940552547	-0.0022125244	
1741940552548	9.918213E-4	
1741940552549	-8.392334E-4	
1741940552550	-0.0023651123	
1741940552551	9.1552734E-4	
1741940552552	8.392334E-4	
1741940552553	0.0029754639	
1741940552554	0.0019073486	
1741940552555	-0.0015258789	
1741940552556	6.866455E-4	
1741940552557	-0.0016784668	
1741940552558	-6.866455E-4	
1741940552559	0.0048828125	
1741940552560	0.005340576	
1741940552561	0.002822876	
1741940552562	-9.1552734E-4	
1741940552563	0.0036621094	
1741940552564	0.005493164	
1741940552565	-0.0011444092	
1741940552566	-0.0030517578	
1741940552567	-0.007019043	
1741940552568	-0.009918213	
1741940552569	-0.0025177002	
1741940552570	0.0016021729	
1741940552571	1.5258789E-4	
1741940552572	7.6293945E-5	
1741940552573	-0.0024414062	
1741940552574	-0.0046539307	
1741940552575	-0.0017547607	
1741940552576	0.0012207031	
1741940552577	-0.0030517578	
1741940552578	-0.0023651123	
1741940552579	0.0012207031	
1741940552580	0.004196167	
1741940552581	0.01373291	
1741940552582	0.0064849854	
1741940552583	-0.0061798096	
1741940552584	0.0015258789	
1741940552585	0.0020599365	
1741940552586	-3.0517578E-4	
1741940552587	0.0061798096	
1741940552588	-0.0030517578	
1741940552589	-0.005722046	
1741940552590	0.002746582	
1741940552591	-0.0011444092	
1741940552592	-2.2888184E-4	
1741940552593	5.340576E-4	
1741940552594	-0.009384155	
1741940552595	-0.009460449	
1741940552596	-9.918213E-4	
1741940552597	-0.00289917	
1741940552598	-0.004425049	
1741940552599	-9.918213E-4	
1741940552600	-0.0012969971	
1741940552601	0.002670288	
1741940552602	0.008239746	
1741940552603	0.0064086914	
1741940552604	9.918213E-4	
1741940552605	0.0032806396	
1741940552606	0.004043579	
1741940552607	-0.004425049	
1741940552608	-0.0033569336	
1741940552609	0.00869751	
1741940552610	0.016937256	
1741940552611	0.014572144	
1741940552612	0.004043579	
1741940552613	-0.00579834	
1741940552614	-0.010528564	
1741940552615	-0.010299683	
1741940552616	-0.004425049	
1741940552617	-0.0030517578	
1741940552618	-0.0051116943	
1741940552619	-0.0011444092	
1741940552620	-0.0016021729	
1741940552621	-0.004501343	
1741940552622	-0.004501343	
1741940552623	-0.005569458	
1741940552624	-0.0022125244	
1741940552625	-0.0016021729	
1741940552626	4.5776367E-4	
1741940552627	0.007171631	
1741940552628	0.0	
1741940552629	-0.0062561035	
1741940552630	0.0019073486	
1741940552631	9.1552734E-4	
1741940552632	-0.0031280518	
1741940552633	0.003967285	
1741940552634	0.005264282	
1741940552635	0.0029754639	
1741940552636	8.392334E-4	
1741940552637	0.0017547607	
1741940552638	0.007019043	
1741940552639	0.0029754639	
1741940552640	0.0024414062	
1741940552641	0.0034332275	
1741940552642	7.6293945E-4	
1741940552643	5.340576E-4	
1741940552644	-0.004196167	
1741940552645	-0.0023651123	
1741940552646	0.005645752	
1741940552647	0.0035095215	
1741940552648	-0.0022125244	
1741940552649	-0.0016021729	
1741940552650	-0.0035095215	
1741940552651	-0.0035858154	
1741940552652	0.003967285	
1741940552653	-7.6293945E-4	
1741940552654	-0.0062561035	
1741940552655	-0.0030517578	
1741940552656	-0.0037384033	
1741940552657	0.0011444092	
1741940552658	0.001449585	
1741940552659	-0.004043579	
1741940552660	-3.0517578E-4	
1741940552661	6.1035156E-4	
1741940552662	0.0025939941	
1741940552663	0.0038909912	
1741940552664	-0.0016021729	
1741940552665	-6.1035156E-4	
1741940552666	-0.00289917	
1741940552667	-0.0051116943	
1741940552668	-0.0035858154	
1741940552669	-0.0064086914	
1741940552670	-0.0011444092	
1741940552671	0.0059509277	
1741940552672	0.0035095215	
1741940552673	0.0023651123	
1741940552674	0.0019073486	
1741940552675	0.0016784668	
1741940552676	0.00793457	
1741940552677	0.0066375732	
1741940552678	0.0024414062	
1741940552679	7.6293945E-4	
1741940552680	-0.0033569336	
1741940552681	2.2888184E-4	
1741940552682	-0.0019836426	
1741940552683	-0.004272461	
1741940552684	0.0023651123	
1741940552685	6.1035156E-4	
1741940552686	-0.0029754639	
1741940552687	-0.003967285	
1741940552688	-0.0077056885	
1741940552689	-0.0034332275	
1741940552690	-0.0015258789	
1741940552691	-0.0032806396	
1741940552692	0.006942749	
1741940552693	0.007247925	
1741940552694	-8.392334E-4	
1741940552695	-0.0012969971	
1741940552696	0.0012207031	
1741940552697	-5.340576E-4	
1741940552698	3.8146973E-4	
1741940552699	0.009460449	
1741940552700	0.004348755	
1741940552701	-0.002822876	
1741940552702	0.0022125244	
1741940552703	-0.0020599365	
1741940552704	-0.003967285	
1741940552705	4.5776367E-4	
1741940552706	-3.0517578E-4	
1741940552707	-9.918213E-4	
1741940552708	-0.006866455	
1741940552709	-0.0063323975	
1741940552710	-0.0016021729	
1741940552711	0.004119873	
1741940552712	0.0104522705	
1741940552713	0.0016021729	
1741940552714	-0.0012969971	
1741940552715	0.0018310547	
1741940552716	-0.0016784668	
1741940552717	-0.002822876	
1741940552718	-0.004272461	
1741940552719	-0.004348755	
1741940552720	7.6293945E-5	
1741940552721	0.00289917	
1741940552722	7.6293945E-4	
1741940552723	0.0015258789	
1741940552724	-0.0016021729	
1741940552725	-0.0062561035	
1741940552726	0.0019836426	
1741940552727	3.8146973E-4	
1741940552728	-0.0059509277	
1741940552729	5.340576E-4	
1741940552730	-0.0024414062	
1741940552731	-0.0034332275	
1741940552732	0.0077819824	
1741940552733	0.010147095	
1741940552734	0.0019836426	
1741940552735	-0.00869751	
1741940552736	-0.004348755	
1741940552737	0.005569458	
1741940552738	0.0049591064	
1741940552739	0.004043579	
1741940552740	9.1552734E-4	
1741940552741	-7.6293945E-4	
1741940552742	0.005493164	
1741940552743	0.011978149	
1741940552744	0.011444092	
1741940552745	0.010986328	
1741940552746	0.00579834	
1741940552747	-0.006942749	
1741940552748	-0.011520386	
1741940552749	-0.0104522705	
1741940552750	-0.011520386	
1741940552751	-0.009994507	
1741940552752	-0.004501343	
1741940552753	-0.007019043	
1741940552754	-0.012817383	
1741940552755	-0.0062561035	
1741940552756	0.0021362305	
1741940552757	3.0517578E-4	
1741940552758	-0.0012207031	
1741940552759	0.0012207031	
1741940552760	0.001449585	
1741940552761	0.002746582	
1741940552762	2.2888184E-4	
1741940552763	-0.0030517578	
1741940552764	0.0063323975	
1741940552765	0.008468628	
1741940552766	0.005264282	
1741940552767	0.008239746	
1741940552768	7.6293945E-5	
1741940552769	-0.0032043457	
1741940552770	0.0074005127	
1741940552771	0.00793457	
1741940552772	0.002670288	
1741940552773	0.0010681152	
1741940552774	-2.2888184E-4	
1741940552775	-0.002670288	
1741940552776	-0.0049591064	
1741940552777	-0.0025939941	
1741940552778	6.1035156E-4	
1741940552779	0.0035858154	
1741940552780	0.0049591064	
1741940552781	0.0035858154	
1741940552782	0.0010681152	
1741940552783	-0.0038909912	
1741940552784	-0.006713867	
1741940552785	-0.0104522705	
1741940552786	-0.012054443	
1741940552787	-0.0061035156	
1741940552788	1.5258789E-4	
1741940552789	0.009994507	
1741940552790	0.009918213	
1741940552791	-0.0019836426	
1741940552792	-0.004119873	
1741940552793	-1.5258789E-4	
1741940552794	0.0012207031	
1741940552795	0.0024414062	
1741940552796	0.0051879883	
1741940552797	-0.0019836426	
1741940552798	-0.011291504	
1741940552799	-0.005874634	
1741940552800	-0.0019073486	
1741940552801	0.001373291	
1741940552802	0.00793457	
1741940552803	0.0016021729	
1741940552804	-0.0038146973	
1741940552805	0.0032806396	
1741940552806	0.0038909912	
1741940552807	-6.866455E-4	
1741940552808	0.0066375732	
1741940552809	0.008850098	
1741940552810	-0.001449585	
1741940552811	-0.0016021729	
1741940552812	4.5776367E-4	
1741940552813	-0.004348755	
1741940552814	-0.005569458	
1741940552815	-0.002746582	
1741940552816	-0.002746582	
1741940552817	-0.0033569336	
1741940552818	0.0048065186	
1741940552819	0.0060272217	
1741940552820	-0.0038146973	
1741940552821	-0.004425049	
1741940552822	8.392334E-4	
1741940552823	0.0022888184	
1741940552824	-5.340576E-4	
1741940552825	-0.0038146973	
1741940552826	-0.004119873	
1741940552827	-0.0010681152	
1741940552828	0.0020599365	
1741940552829	0.0016021729	
1741940552830	0.0021362305	
1741940552831	0.0015258789	
1741940552832	-5.340576E-4	
1741940552833	0.0023651123	
1741940552834	0.00289917	
1741940552835	0.0020599365	
1741940552836	0.008621216	
1741940552837	0.0051116943	
1741940552838	-0.001449585	
1741940552839	2.2888184E-4	
1741940552840	-0.00541687	
1741940552841	-0.002822876	
1741940552842	-0.0021362305	
1741940552843	-0.005722046	
1741940552844	0.0048065186	
1741940552845	0.0031280518	
1741940552846	-0.0034332275	
1741940552847	-0.0017547607	
1741940552848	-0.0051879883	
1741940552849	-0.004425049	
1741940552850	-0.0019836426	
1741940552851	-0.0047302246	
1741940552852	-0.0022125244	
1741940552853	0.0015258789	
1741940552854	0.0012969971	
1741940552855	0.0049591064	
1741940552856	0.0048828125	
1741940552857	0.0010681152	
1741940552858	0.0017547607	
1741940552859	-7.6293945E-4	
1741940552860	-5.340576E-4	
1741940552861	0.0018310547	
1741940552862	-6.1035156E-4	
1741940552863	-0.005569458	
1741940552864	-0.007019043	
1741940552865	0.0011444092	
1741940552866	0.0062561035	
1741940552867	0.010681152	
1741940552868	0.008621216	
1741940552869	-5.340576E-4	
1741940552870	0.0050354004	
1741940552871	0.004272461	
1741940552872	-0.00793457	
1741940552873	-0.013046265	
1741940552874	-0.008850098	
1741940552875	2.2888184E-4	
1741940552876	0.0016784668	
1741940552877	0.004043579	
1741940552878	0.008087158	
1741940552879	0.002670288	
1741940552880	-4.5776367E-4	
1741940552881	-0.0018310547	
1741940552882	-0.008087158	
1741940552883	-0.004348755	
1741940552884	0.0020599365	
1741940552885	-0.0048828125	
1741940552886	-0.011978149	
1741940552887	-0.009384155	
1741940552888	-0.0023651123	
1741940552889	-0.0019836426	
1741940552890	-6.866455E-4	
1741940552891	0.012283325	
1741940552892	0.021438599	
1741940552893	0.012435913	
1741940552894	0.0032043457	
1741940552895	0.0060272217	
1741940552896	0.001373291	
1741940552897	-0.0046539307	
1741940552898	-0.0022888184	
1741940552899	-0.0019836426	
1741940552900	-0.003967285	
1741940552901	-0.0036621094	
1741940552902	-1.5258789E-4	
1741940552903	-5.340576E-4	
1741940552904	-0.0065612793	
1741940552905	-0.006866455	
1741940552906	-0.0016021729	
1741940552907	-0.0015258789	
1741940552908	-0.004425049	
1741940552909	7.6293945E-4	
1741940552910	0.0051116943	
1741940552911	0.0024414062	
1741940552912	0.0065612793	
1741940552913	0.00579834	
1741940552914	-0.001449585	
1741940552915	0.0012969971	
1741940552916	0.0016784668	
1741940552917	-2.2888184E-4	
1741940552918	-3.0517578E-4	
1741940552919	-0.0062561035	
1741940552920	-0.007019043	
1741940552921	-3.8146973E-4	
1741940552922	2.2888184E-4	
1741940552923	0.0019073486	
1741940552924	-5.340576E-4	
1741940552925	-0.005569458	
1741940552926	1.5258789E-4	
1741940552927	-0.0010681152	
1741940552928	-0.0017547607	
1741940552929	0.0029754639	
1741940552930	0.0048828125	
1741940552931	0.004425049	
1741940552932	7.6293945E-5	
1741940552933	0.0018310547	
1741940552934	0.0010681152	
1741940552935	-0.004272461	
1741940552936	-0.0025939941	
1741940552937	0.0022125244	
1741940552938	0.001373291	
1741940552939	-0.0024414062	
1741940552940	0.0016021729	
1741940552941	0.0018310547	
1741940552942	-0.0017547607	
1741940552943	0.008163452	
1741940552944	0.01625061	
1741940552945	0.008773804	
1741940552946	-0.0036621094	
1741940552947	-0.01121521	
1741940552948	-0.008010864	
1741940552949	-0.0025939941	
1741940552950	-0.00541687	
1741940552951	-0.009536743	
1741940552952	-0.004425049	
1741940552953	0.0061798096	
1741940552954	0.009002686	
1741940552955	0.006790161	
1741940552956	0.006790161	
1741940552957	0.0024414062	
1741940552958	-0.005569458	
1741940552959	-0.009918213	
1741940552960	-0.0090789795	
1741940552961	-0.0063323975	
1741940552962	-0.007019043	
1741940552963	-0.0046539307	
1741940552964	-7.6293945E-4	
1741940552965	-2.2888184E-4	
1741940552966	0.0031280518	
1741940552967	0.005722046	
1741940552968	0.002670288	
1741940552969	-0.0060272217	
1741940552970	0.0017547607	
1741940552971	0.012817383	
1741940552972	0.0063323975	
1741940552973	0.0020599365	
1741940552974	-0.0022125244	
1741940552975	-0.004272461	
1741940552976	-2.2888184E-4	
1741940552977	7.6293945E-5	
1741940552978	1.5258789E-4	
1741940552979	0.0019836426	
1741940552980	0.0035858154	
1741940552981	0.0021362305	
1741940552982	-5.340576E-4	
1741940552983	-0.0019836426	
1741940552984	0.0012969971	
1741940552985	0.002670288	
1741940552986	-4.5776367E-4	
1741940552987	0.0066375732	
1741940552988	0.008850098	
1741940552989	-0.0020599365	
1741940552990	-0.007019043	
1741940552991	-0.010604858	
1741940552992	-0.011367798	
1741940552993	0.00289917	
1741940552994	0.010299683	
1741940552995	0.0016021729	
1741940552996	-6.866455E-4	
1741940552997	-0.0032806396	
1741940552998	-0.00541687	
1741940552999	0.0025177002	
1741940553000	5.340576E-4	
1741940553001	-4.5776367E-4	
1741940553002	0.005264282	
1741940553003	-0.0010681152	
1741940553004	-0.007095337	
1741940553005	-0.004501343	
1741940553006	-9.1552734E-4	
1741940553007	0.0012207031	
1741940553008	1.5258789E-4	
1741940553009	-0.0017547607	
1741940553010	5.340576E-4	
1741940553011	0.0016021729	
1741940553012	-0.0016784668	
1741940553013	-0.004043579	
1741940553014	-0.0021362305	
1741940553015	0.00579834	
1741940553016	0.008468628	
1741940553017	0.008163452	
1741940553018	0.0048065186	
1741940553019	-0.0048065186	
1741940553020	-0.00289917	
1741940553021	-0.001373291	
1741940553022	-0.004196167	
1741940553023	0.004196167	
1741940553024	0.0023651123	
1741940553025	-0.005645752	
1741940553026	-0.0016784668	
1741940553027	-0.0010681152	
1741940553028	-0.004501343	
1741940553029	-0.0020599365	
1741940553030	0.0051116943	
1741940553031	0.006866455	
1741940553032	0.0019836426	
1741940553033	0.0016021729	
1741940553034	9.918213E-4	
1741940553035	-8.392334E-4	
1741940553036	-3.8146973E-4	
1741940553037	0.0	
1741940553038	0.0024414062	
1741940553039	-0.0012207031	
1741940553040	-0.0064086914	
1741940553041	-0.0031280518	
1741940553042	-7.6293945E-4	
1741940553043	-0.0034332275	
1741940553044	-0.0015258789	
1741940553045	0.0029754639	
1741940553046	-0.0033569336	
1741940553047	-0.005569458	
1741940553048	-0.002746582	
1741940553049	-0.0024414062	
1741940553050	0.004425049	
1741940553051	0.0047302246	
1741940553052	0.005340576	
1741940553053	0.012130737	
1741940553054	0.007247925	
1741940553055	-0.0048065186	
1741940553056	-0.00289917	
1741940553057	0.0048828125	
1741940553058	0.0038146973	
1741940553059	0.0021362305	
1741940553060	0.0022125244	
1741940553061	-9.918213E-4	
1741940553062	-0.009231567	
1741940553063	-0.0062561035	
1741940553064	0.0010681152	
1741940553065	-0.0051116943	
1741940553066	-0.0064086914	
1741940553067	-0.0064086914	
1741940553068	-0.00793457	
1741940553069	-3.8146973E-4	
1741940553070	0.0061035156	
1741940553071	0.00579834	
1741940553072	-8.392334E-4	
1741940553073	-0.0011444092	
1741940553074	0.004119873	
1741940553075	0.004348755	
1741940553076	0.0029754639	
1741940553077	-0.0022125244	
1741940553078	-0.0029754639	
1741940553079	-0.0019073486	
1741940553080	-0.0047302246	
1741940553081	0.0019073486	
1741940553082	0.009613037	
1741940553083	0.008087158	
1741940553084	6.866455E-4	
1741940553085	-0.0020599365	
1741940553086	0.005264282	
1741940553087	0.006866455	
1741940553088	0.0034332275	
1741940553089	-0.0050354004	
1741940553090	-0.010375977	
1741940553091	-0.008010864	
1741940553092	-0.00831604	
1741940553093	-0.0020599365	
1741940553094	3.0517578E-4	
1741940553095	-3.8146973E-4	
1741940553096	0.0035095215	
1741940553097	-0.0010681152	
1741940553098	-9.1552734E-4	
1741940553099	0.0076293945	
1741940553100	0.005493164	
1741940553101	0.0012207031	
1741940553102	-0.0021362305	
1741940553103	-0.00579834	
1741940553104	-0.002670288	
1741940553105	7.6293945E-5	
1741940553106	-3.0517578E-4	
1741940553107	-7.6293945E-5	
1741940553108	-1.5258789E-4	
1741940553109	0.006713867	
1741940553110	0.009918213	
1741940553111	0.0034332275	
1741940553112	6.866455E-4	
1741940553113	-0.003967285	
1741940553114	-9.918213E-4	
1741940553115	5.340576E-4	
1741940553116	-0.0051116943	
1741940553117	0.002670288	
1741940553118	0.002746582	
1741940553119	-0.0061798096	
1741940553120	-0.0060272217	
1741940553121	-0.0015258789	
1741940553122	0.004501343	
1741940553123	-0.0020599365	
1741940553124	-0.0061035156	
1741940553125	-0.0061798096	
1741940553126	-0.011520386	
1741940553127	5.340576E-4	
1741940553128	0.0045776367	
1741940553129	0.0017547607	
1741940553130	0.00831604	
1741940553131	4.5776367E-4	
1741940553132	-0.0018310547	
1741940553133	0.0064849854	
1741940553134	0.0030517578	
1741940553135	-0.0019836426	
1741940553136	0.004272461	
1741940553137	0.009155273	
1741940553138	0.0049591064	
1741940553139	0.0018310547	
1741940553140	-5.340576E-4	
1741940553141	0.0010681152	
1741940553142	0.00579834	
1741940553143	-0.0016021729	
1741940553144	-0.0077819824	
1741940553145	-0.0035858154	
1741940553146	-0.0064086914	
1741940553147	-0.012130737	
1741940553148	-0.005340576	
1741940553149	0.0048828125	
1741940553150	0.012054443	
1741940553151	0.013885498	
1741940553152	0.001373291	
1741940553153	-0.013427734	
1741940553154	-0.00793457	
1741940553155	0.0045776367	
1741940553156	0.0010681152	
1741940553157	-0.0037384033	
1741940553158	-0.005874634	
1741940553159	-0.009536743	
1741940553160	-0.009460449	
1741940553161	-0.012969971	
1741940553162	-0.006713867	
1741940553163	0.008850098	
1741940553164	0.015258789	
1741940553165	0.02319336	
1741940553166	0.012512207	
1741940553167	0.0021362305	
1741940553168	0.005340576	
1741940553169	-0.0034332275	
1741940553170	-0.0037384033	
1741940553171	-0.004501343	
1741940553172	-0.0017547607	
1741940553173	0.007858276	
1741940553174	0.0010681152	
1741940553175	-0.0063323975	
1741940553176	-0.008621216	
1741940553177	-0.0038909912	
1741940553178	0.0046539307	
1741940553179	-0.002670288	
1741940553180	-0.007247925	
1741940553181	-0.0019073486	
1741940553182	-9.918213E-4	
1741940553183	7.6293945E-4	
1741940553184	-8.392334E-4	
1741940553185	-0.002822876	
1741940553186	4.5776367E-4	
1741940553187	-0.0012969971	
1741940553188	-0.0010681152	
1741940553189	-0.0018310547	
1741940553190	0.0010681152	
1741940553191	0.010757446	
1741940553192	0.010070801	
1741940553193	0.0045776367	
1741940553194	5.340576E-4	
1741940553195	-0.0011444092	
1741940553196	-0.0038146973	
1741940553197	-0.0033569336	
1741940553198	-0.002746582	
1741940553199	-0.004196167	
1741940553200	0.0037384033	
1741940553201	0.0019836426	
1741940553202	-0.0023651123	
1741940553203	0.0073242188	
1741940553204	0.0019073486	
1741940553205	-0.005645752	
1741940553206	0.0017547607	
1741940553207	-4.5776367E-4	
1741940553208	-0.00541687	
1741940553209	-0.006713867	
1741940553210	-0.006790161	
1741940553211	9.1552734E-4	
1741940553212	0.01335144	
1741940553213	0.018997192	
1741940553214	0.01083374	
1741940553215	0.0016021729	
1741940553216	-0.008621216	
1741940553217	-0.013809204	
1741940553218	-0.0029754639	
1741940553219	-6.866455E-4	
1741940553220	-0.0017547607	
1741940553221	-1.5258789E-4	
1741940553222	-0.0029754639	
1741940553223	-0.0019073486	
1741940553224	-0.001449585	
1741940553225	-0.0023651123	
1741940553226	-0.005264282	
1741940553227	-5.340576E-4	
1741940553228	0.0011444092	
1741940553229	-0.0047302246	
1741940553230	0.001373291	
1741940553231	8.392334E-4	
1741940553232	0.0	
1741940553233	0.002746582	
1741940553234	0.001449585	
1741940553235	0.005569458	
1741940553236	0.0010681152	
1741940553237	-3.0517578E-4	
1741940553238	0.002746582	
1741940553239	-0.00289917	
1741940553240	-0.0022888184	
1741940553241	-0.0012969971	
1741940553242	0.0011444092	
1741940553243	0.010757446	
1741940553244	0.0077056885	
1741940553245	-7.6293945E-5	
1741940553246	-2.2888184E-4	
1741940553247	0.0017547607	
1741940553248	0.0011444092	
1741940553249	-0.0015258789	
1741940553250	0.0023651123	
1741940553251	3.0517578E-4	
1741940553252	-0.009155273	
1741940553253	-0.004501343	
1741940553254	-0.0022125244	
1741940553255	-0.008239746	
1741940553256	-0.004425049	
1741940553257	-0.0022888184	
1741940553258	-0.004196167	
1741940553259	-0.0017547607	
1741940553260	0.00541687	
1741940553261	0.011444092	
1741940553262	0.0076293945	
1741940553263	3.0517578E-4	
1741940553264	-0.0033569336	
1741940553265	-0.0033569336	
1741940553266	-5.340576E-4	
1741940553267	0.0018310547	
1741940553268	-3.8146973E-4	
1741940553269	-0.004348755	
1741940553270	0.0022888184	
1741940553271	0.007171631	
1741940553272	0.001449585	
1741940553273	-9.1552734E-4	
1741940553274	-6.1035156E-4	
1741940553275	-7.6293945E-4	
1741940553276	-0.0032043457	
1741940553277	-0.002746582	
1741940553278	0.0011444092	
1741940553279	-0.005340576	
1741940553280	-0.0059509277	
1741940553281	0.00541687	
1741940553282	0.0019073486	
1741940553283	-0.0015258789	
1741940553284	0.0022888184	
1741940553285	-0.0033569336	
1741940553286	3.8146973E-4	
1741940553287	0.002746582	
1741940553288	-9.918213E-4	
1741940553289	0.0019073486	
1741940553290	0.0066375732	
1741940553291	0.009994507	
1741940553292	0.0029754639	
1741940553293	0.00289917	
1741940553294	0.004501343	
1741940553295	0.0031280518	
1741940553296	0.0074768066	
1741940553297	-5.340576E-4	
1741940553298	-0.011062622	
1741940553299	-0.014877319	
1741940553300	-0.01373291	
1741940553301	-0.0062561035	
1741940553302	0.0022125244	
1741940553303	0.0011444092	
1741940553304	-5.340576E-4	
1741940553305	4.5776367E-4	
1741940553306	-1.5258789E-4	
1741940553307	0.007095337	
1741940553308	0.0021362305	
1741940553309	-0.0031280518	
1741940553310	-0.0038909912	
1741940553311	-0.0077819824	
1741940553312	0.0038146973	
1741940553313	0.0025177002	
1741940553314	-0.0064849854	
1741940553315	0.0022125244	
1741940553316	0.004196167	
1741940553317	0.002670288	
1741940553318	0.0034332275	
1741940553319	-0.0022888184	
1741940553320	0.0025939941	
1741940553321	0.005493164	
1741940553322	-0.003967285	
1741940553323	3.0517578E-4	
1741940553324	0.0048828125	
1741940553325	3.0517578E-4	
1741940553326	0.0030517578	
1741940553327	0.0045776367	
1741940553328	0.0021362305	
1741940553329	0.006713867	
1741940553330	0.0016784668	
1741940553331	-0.007019043	
1741940553332	-0.0064849854	
1741940553333	-0.009613037	
1741940553334	-0.0066375732	
1741940553335	-0.006942749	
1741940553336	-0.0035858154	
1741940553337	0.005493164	
1741940553338	0.0030517578	
1741940553339	0.005264282	
1741940553340	0.0021362305	
1741940553341	-0.0018310547	
1741940553342	0.0047302246	
1741940553343	0.004501343	
1741940553344	-0.002746582	
1741940553345	-0.006790161	
1741940553346	-0.0061035156	
1741940553347	-0.00831604	
1741940553348	-0.001373291	
1741940553349	0.015487671	
1741940553350	0.018157959	
1741940553351	0.0062561035	
1741940553352	-0.002822876	
1741940553353	0.0029754639	
1741940553354	0.009002686	
1741940553355	6.866455E-4	
1741940553356	-0.0032043457	
1741940553357	-1.5258789E-4	
1741940553358	-0.002670288	
1741940553359	-0.0074768066	
1741940553360	-0.01083374	
1741940553361	-0.0046539307	
1741940553362	-0.002822876	
1741940553363	-0.01083374	
1741940553364	-0.0048065186	
1741940553365	0.001373291	
1741940553366	1.5258789E-4	
1741940553367	0.0065612793	
1741940553368	1.5258789E-4	
1741940553369	-0.0062561035	
1741940553370	0.0035858154	
1741940553371	9.1552734E-4	
1741940553372	-0.0034332275	
1741940553373	-0.0012969971	
1741940553374	-0.0030517578	
1741940553375	-3.0517578E-4	
1741940553376	2.2888184E-4	
1741940553377	0.0016021729	
1741940553378	0.010528564	
1741940553379	0.01449585	
1741940553380	0.008926392	
1741940553381	-0.0022125244	
1741940553382	-0.008163452	
1741940553383	-0.0048828125	
1741940553384	-0.002670288	
1741940553385	-0.0012969971	
1741940553386	-7.6293945E-4	
1741940553387	0.002746582	
1741940553388	0.005722046	
1741940553389	-0.0038909912	
1741940553390	-0.0073242188	
1741940553391	0.007858276	
1741940553392	0.013504028	
1741940553393	0.005722046	
1741940553394	0.0045776367	
1741940553395	-0.0019836426	
1741940553396	-0.0074768066	
1741940553397	-0.0012207031	
1741940553398	-0.0025177002	
1741940553399	-0.0038909912	
1741940553400	-0.0037384033	
1741940553401	-0.007019043	
1741940553402	-0.002822876	
1741940553403	0.0063323975	
1741940553404	0.005874634	
1741940553405	-0.004501343	
1741940553406	-0.0060272217	
1741940553407	-7.6293945E-4	
1741940553408	3.8146973E-4	
1741940553409	-7.6293945E-4	
1741940553410	-1.5258789E-4	
1741940553411	0.005264282	
1741940553412	0.0023651123	
1741940553413	-0.006866455	
1741940553414	-3.8146973E-4	
1741940553415	0.005874634	
1741940553416	-7.6293945E-5	
1741940553417	0.0021362305	
1741940553418	0.0051116943	
1741940553419	-0.004348755	
1741940553420	-0.0035095215	
1741940553421	0.0023651123	
1741940553422	-0.008163452	
1741940553423	-0.005264282	
1741940553424	0.0024414062	
1741940553425	0.0038909912	
1741940553426	0.007171631	
1741940553427	0.001449585	
1741940553428	0.001373291	
1741940553429	-6.1035156E-4	
1741940553430	-0.0011444092	
1741940553431	3.0517578E-4	
1741940553432	-0.0033569336	
1741940553433	-1.5258789E-4	
1741940553434	-0.0017547607	
1741940553435	-0.0073242188	
1741940553436	-0.011062622	
1741940553437	-9.1552734E-4	
1741940553438	0.006942749	
1741940553439	-6.866455E-4	
1741940553440	-3.8146973E-4	
1741940553441	0.0016784668	
1741940553442	0.0025939941	
1741940553443	0.0048828125	
1741940553444	0.014343262	
1741940553445	0.01159668	
1741940553446	3.0517578E-4	
1741940553447	0.005493164	
1741940553448	-0.0045776367	
1741940553449	-0.003967285	
1741940553450	0.010147095	
1741940553451	-0.001449585	
1741940553452	-0.0035858154	
1741940553453	-0.0034332275	
1741940553454	-0.008392334	
1741940553455	-0.0046539307	
1741940553456	-0.0061798096	
1741940553457	-0.0035858154	
1741940553458	8.392334E-4	
1741940553459	-0.0016021729	
1741940553460	-0.0011444092	
1741940553461	-0.0019073486	
1741940553462	4.5776367E-4	
1741940553463	0.0022125244	
1741940553464	-0.0038146973	
1741940553465	-0.0011444092	
1741940553466	0.0032806396	
1741940553467	-0.0034332275	
1741940553468	-0.0076293945	
1741940553469	-0.0032043457	
1741940553470	3.0517578E-4	
1741940553471	0.0021362305	
1741940553472	0.0035095215	
1741940553473	0.0049591064	
1741940553474	0.00869751	
1741940553475	0.0015258789	
1741940553476	7.6293945E-5	
1741940553477	0.014877319	
1741940553478	0.008850098	
1741940553479	-0.009155273	
1741940553480	-0.0021362305	
1741940553481	-2.2888184E-4	
1741940553482	-0.006942749	
1741940553483	-0.0010681152	
1741940553484	1.5258789E-4	
1741940553485	-0.0016021729	
1741940553486	5.340576E-4	
1741940553487	0.005493164	
1741940553488	0.004043579	
1741940553489	-0.0023651123	
1741940553490	0.0015258789	
1741940553491	0.0033569336	
1741940553492	-0.0073242188	
1741940553493	-0.013656616	
1741940553494	-0.0046539307	
1741940553495	0.007095337	
1741940553496	0.008850098	
1741940553497	-0.004348755	
1741940553498	-0.008926392	
1741940553499	0.005874634	
1741940553500	0.0061035156	
1741940553501	-0.0023651123	
1741940553502	-5.340576E-4	
1741940553503	-1.5258789E-4	
1741940553504	-3.0517578E-4	
1741940553505	0.004043579	
1741940553506	-6.866455E-4	
1741940553507	-0.005722046	
1741940553508	-0.0029754639	
1741940553509	-0.004272461	
1741940553510	0.0022888184	
1741940553511	0.00541687	
1741940553512	-0.0015258789	
1741940553513	-9.1552734E-4	
1741940553514	6.1035156E-4	
1741940553515	0.0062561035	
1741940553516	0.009613037	
1741940553517	0.0029754639	
1741940553518	-3.0517578E-4	
1741940553519	-0.00541687	
1741940553520	-0.009002686	
1741940553521	-0.004425049	
1741940553522	0.0010681152	
1741940553523	0.0077819824	
1741940553524	5.340576E-4	
1741940553525	-0.0074005127	
1741940553526	-0.0029754639	
1741940553527	-0.0033569336	
1741940553528	-3.8146973E-4	
1741940553529	0.004348755	
1741940553530	-2.2888184E-4	
1741940553531	-0.00289917	
1741940553532	0.001373291	
1741940553533	0.0032043457	
1741940553534	-0.001449585	
1741940553535	0.0021362305	
1741940553536	0.0030517578	
1741940553537	-0.008087158	
1741940553538	-0.001449585	
1741940553539	-5.340576E-4	
1741940553540	-0.0066375732	
1741940553541	0.0038909912	
1741940553542	9.1552734E-4	
1741940553543	0.005569458	
1741940553544	0.015029907	
1741940553545	0.0030517578	
1741940553546	0.0025177002	
1741940553547	0.007171631	
1741940553548	7.6293945E-5	
1741940553549	-0.0038146973	
1741940553550	4.5776367E-4	
1741940553551	-6.1035156E-4	
1741940553552	-0.01083374	
1741940553553	-0.009918213	
1741940553554	-9.1552734E-4	
1741940553555	2.2888184E-4	
1741940553556	0.002822876	
1741940553557	0.0035858154	
1741940553558	0.004425049	
1741940553559	-9.1552734E-4	
1741940553560	-0.0051879883	
1741940553561	0.0035095215	
1741940553562	0.0022125244	
1741940553563	-0.002746582	
1741940553564	-8.392334E-4	
1741940553565	0.00289917	
1741940553566	0.002670288	
1741940553567	-6.866455E-4	
1741940553568	-0.0048065186	
1741940553569	-0.011367798	
1741940553570	-0.008621216	
1741940553571	-0.0016021729	
1741940553572	3.0517578E-4	
1741940553573	1.5258789E-4	
1741940553574	0.004119873	
1741940553575	0.012359619	
1741940553576	0.0038146973	
1741940553577	-0.0031280518	
1741940553578	7.6293945E-5	
1741940553579	-0.0035858154	
1741940553580	0.0011444092	
1741940553581	0.00831604	
1741940553582	0.009460449	
1741940553583	0.0019073486	
1741940553584	-0.0047302246	
1741940553585	0.0022125244	
1741940553586	0.0035095215	
1741940553587	-6.866455E-4	
1741940553588	-0.0077819824	
1741940553589	-0.009918213	
1741940553590	-0.0035858154	
1741940553591	-0.0031280518	
1741940553592	-0.0030517578	
1741940553593	-0.0036621094	
1741940553594	-0.0023651123	
1741940553595	0.0016021729	
1741940553596	6.1035156E-4	
1741940553597	0.0036621094	
1741940553598	0.0035095215	
1741940553599	0.005340576	
1741940553600	0.004043579	
1741940553601	-0.0016784668	
1741940553602	0.001449585	
1741940553603	6.1035156E-4	
1741940553604	8.392334E-4	
1741940553605	-9.918213E-4	
1741940553606	-0.0037384033	
1741940553607	0.004272461	
1741940553608	0.002670288	
1741940553609	6.1035156E-4	
1741940553610	0.0029754639	
1741940553611	7.6293945E-5	
1741940553612	-0.0018310547	
1741940553613	-0.005340576	
1741940553614	0.0015258789	
1741940553615	0.00831604	
1741940553616	-0.0015258789	
1741940553617	-0.0062561035	
1741940553618	-9.1552734E-4	
1741940553619	0.0016021729	
1741940553620	-0.0020599365	
1741940553621	-0.0023651123	
1741940553622	-0.004196167	
1741940553623	-0.0016784668	
1741940553624	0.00793457	
1741940553625	0.008087158	
1741940553626	0.006942749	
1741940553627	-0.0020599365	
1741940553628	-0.0062561035	
1741940553629	-7.6293945E-5	
1741940553630	-0.011291504	
1741940553631	-0.010147095	
1741940553632	0.004043579	
1741940553633	0.0010681152	
1741940553634	0.0019836426	
1741940553635	0.0031280518	
1741940553636	0.002822876	
1741940553637	0.005493164	
1741940553638	0.0038909912	
1741940553639	0.004272461	
1741940553640	0.004425049	
1741940553641	2.2888184E-4	
1741940553642	-0.008010864	
1741940553643	-0.013122559	
1741940553644	-0.0059509277	
1741940553645	-7.6293945E-4	
1741940553646	-2.2888184E-4	
1741940553647	8.392334E-4	
1741940553648	0.007171631	
1741940553649	0.0076293945	
1741940553650	-0.005722046	
1741940553651	-0.0033569336	
1741940553652	0.002670288	
1741940553653	-0.00831604	
1741940553654	-0.007858276	
1741940553655	3.0517578E-4	
1741940553656	0.001449585	
1741940553657	0.0038146973	
1741940553658	0.004501343	
1741940553659	0.0034332275	
1741940553660	0.0016784668	
1741940553661	-2.2888184E-4	
1741940553662	0.0033569336	
1741940553663	0.004196167	
1741940553664	0.0025177002	
1741940553665	0.0023651123	
1741940553666	1.5258789E-4	
1741940553667	0.0	
1741940553668	-0.0019073486	
1741940553669	3.0517578E-4	
1741940553670	-5.340576E-4	
1741940553671	-0.0065612793	
1741940553672	-6.1035156E-4	
1741940553673	0.0016784668	
1741940553674	-0.0060272217	
1741940553675	-0.0016784668	
1741940553676	0.004119873	
1741940553677	0.00289917	
1741940553678	0.0050354004	
1741940553679	0.005493164	
1741940553680	3.8146973E-4	
1741940553681	-0.0074768066	
1741940553682	-0.0051879883	
1741940553683	0.004425049	
1741940553684	0.005569458	
1741940553685	-0.0017547607	
1741940553686	-0.0025177002	
1741940553687	0.0020599365	
1741940553688	0.0	
1741940553689	-0.0036621094	
1741940553690	-0.0051116943	
1741940553691	-0.00289917	
1741940553692	7.6293945E-4	
1741940553693	-3.0517578E-4	
1741940553694	6.1035156E-4	
1741940553695	4.5776367E-4	
1741940553696	-0.0019073486	
1741940553697	-0.0019073486	
1741940553698	-6.1035156E-4	
1741940553699	0.0029754639	
1741940553700	0.0066375732	
1741940553701	0.005340576	
1741940553702	0.0025177002	
1741940553703	-0.004425049	
1741940553704	-0.009384155	
1741940553705	-0.00289917	
1741940553706	0.0034332275	
1741940553707	-1.5258789E-4	
1741940553708	-1.5258789E-4	
1741940553709	0.004043579	
1741940553710	-3.0517578E-4	
1741940553711	-3.0517578E-4	
1741940553712	0.005722046	
1741940553713	8.392334E-4	
1741940553714	-8.392334E-4	
1741940553715	7.6293945E-5	
1741940553716	7.6293945E-5	
1741940553717	-0.0016784668	
1741940553718	-0.0035858154	
1741940553719	-3.8146973E-4	
1741940553720	-9.1552734E-4	
1741940553721	-0.0016784668	
1741940553722	-7.6293945E-4	
1741940553723	-0.0022888184	
1741940553724	4.5776367E-4	
1741940553725	0.0020599365	
1741940553726	0.0038909912	
1741940553727	0.005722046	
1741940553728	0.0047302246	
1741940553729	0.0048828125	
1741940553730	-3.8146973E-4	
1741940553731	-0.0038146973	
1741940553732	0.0015258789	
1741940553733	0.0022125244	
1741940553734	-0.0010681152	
1741940553735	-0.0033569336	
1741940553736	-0.0038146973	
1741940553737	-0.0045776367	
1741940553738	-0.009765625	
1741940553739	-0.009307861	
1741940553740	-9.1552734E-4	
1741940553741	0.001373291	
1741940553742	7.6293945E-4	
1741940553743	0.008392334	
1741940553744	0.0051879883	
1741940553745	-9.1552734E-4	
1741940553746	0.004043579	
1741940553747	0.0010681152	
1741940553748	-0.0024414062	
1741940553749	0.0035095215	
1741940553750	0.0046539307	
1741940553751	-3.0517578E-4	
1741940553752	-0.0015258789	
1741940553753	-9.918213E-4	
1741940553754	-0.004196167	
1741940553755	-0.004272461	
1741940553756	-0.0035858154	
1741940553757	-0.0034332275	
1741940553758	0.0017547607	
1741940553759	8.392334E-4	
1741940553760	0.0012207031	
1741940553761	0.0046539307	
1741940553762	3.8146973E-4	
1741940553763	-6.1035156E-4	
1741940553764	0.0021362305	
1741940553765	2.2888184E-4	
1741940553766	7.6293945E-4	
1741940553767	0.004348755	
1741940553768	0.0046539307	
1741940553769	0.0029754639	
1741940553770	0.0010681152	
1741940553771	-0.0048065186	
1741940553772	-0.0036621094	
1741940553773	0.005493164	
1741940553774	0.004119873	
1741940553775	-1.5258789E-4	
1741940553776	-0.0012207031	
1741940553777	-0.0048828125	
1741940553778	-0.0035095215	
1741940553779	5.340576E-4	
1741940553780	-3.0517578E-4	
1741940553781	7.6293945E-5	
1741940553782	3.8146973E-4	
1741940553783	-9.918213E-4	
1741940553784	-0.0031280518	
1741940553785	-0.0022125244	
1741940553786	0.0017547607	
1741940553787	7.6293945E-4	
1741940553788	-0.0023651123	
1741940553789	9.1552734E-4	
1741940553790	9.918213E-4	
1741940553791	-0.004348755	
1741940553792	0.0011444092	
1741940553793	0.0012969971	
1741940553794	-0.0022125244	
1741940553795	6.866455E-4	
1741940553796	-0.0025939941	
1741940553797	-2.2888184E-4	
1741940553798	0.004425049	
1741940553799	-0.0019836426	
1741940553800	-0.0035095215	
1741940553801	0.0021362305	
1741940553802	0.0023651123	
1741940553803	-0.004043579	
1741940553804	-0.0016784668	
1741940553805	0.006713867	
1741940553806	0.0016021729	
1741940553807	-0.00289917	
1741940553808	0.0045776367	
1741940553809	0.005264282	
1741940553810	4.5776367E-4	
1741940553811	2.2888184E-4	
1741940553812	-0.0064086914	
1741940553813	-0.004119873	
1741940553814	0.001449585	
1741940553815	-0.0030517578	
1741940553816	0.0047302246	
1741940553817	0.012207031	
1741940553818	0.0049591064	
1741940553819	-0.001373291	
1741940553820	7.6293945E-4	
1741940553821	0.0061035156	
1741940553822	6.866455E-4	
1741940553823	-0.011367798	
1741940553824	-0.00793457	
1741940553825	-0.0032043457	
1741940553826	-0.004043579	
1741940553827	0.0064086914	
1741940553828	7.6293945E-4	
1741940553829	-0.010147095	
1741940553830	-0.0032806396	
1741940553831	-6.1035156E-4	
1741940553832	-0.0016021729	
1741940553833	-0.0010681152	
1741940553834	0.001449585	
1741940553835	7.6293945E-5	
1741940553836	-0.005569458	
1741940553837	-0.0010681152	
1741940553838	-0.0012969971	
1741940553839	-0.00289917	
1741940553840	0.0047302246	
1741940553841	0.008087158	
1741940553842	0.014038086	
1741940553843	0.012130737	
1741940553844	0.0019073486	
1741940553845	0.002822876	
1741940553846	0.0048828125	
1741940553847	0.004348755	
1741940553848	0.004348755	
1741940553849	-0.0012969971	
1741940553850	-0.008926392	
1741940553851	-0.010147095	
1741940553852	-0.008163452	
1741940553853	-0.0051116943	
1741940553854	-0.0048828125	
1741940553855	-0.002746582	
1741940553856	-6.866455E-4	
1741940553857	-0.004196167	
1741940553858	-0.001449585	
1741940553859	-0.001373291	
1741940553860	0.0030517578	
1741940553861	0.005493164	
1741940553862	0.0022125244	
1741940553863	0.006713867	
1741940553864	0.0033569336	
1741940553865	-0.0022125244	
1741940553866	-0.004196167	
1741940553867	-0.015029907	
1741940553868	-0.013427734	
1741940553869	7.6293945E-5	
1741940553870	0.009155273	
1741940553871	0.017242432	
1741940553872	0.015716553	
1741940553873	0.0074768066	
1741940553874	0.0021362305	
1741940553875	7.6293945E-5	
1741940553876	0.0047302246	
1741940553877	-6.1035156E-4	
1741940553878	-0.00869751	
1741940553879	-8.392334E-4	
1741940553880	0.0051116943	
1741940553881	0.002746582	
1741940553882	-0.0075531006	
1741940553883	-0.010375977	
1741940553884	-0.0032043457	
1741940553885	-0.009689331	
1741940553886	-0.015029907	
1741940553887	-0.013122559	
1741940553888	-0.011672974	
1741940553889	0.001449585	
1741940553890	0.012969971	
1741940553891	0.015106201	
1741940553892	0.02243042	
1741940553893	0.012741089	
1741940553894	-0.002670288	
1741940553895	0.0032043457	
1741940553896	0.0038909912	
1741940553897	-0.0032806396	
1741940553898	-0.0036621094	
1741940553899	-0.005264282	
1741940553900	-0.007095337	
1741940553901	-0.007247925	
1741940553902	0.001449585	
1741940553903	0.008468628	
1741940553904	0.0060272217	
1741940553905	0.006790161	
1741940553906	-3.0517578E-4	
1741940553907	-0.0073242188	
1741940553908	-0.005340576	
1741940553909	-0.002822876	
1741940553910	-0.001449585	
1741940553911	-0.011062622	
1741940553912	-0.010604858	
1741940553913	-0.0017547607	
1741940553914	8.392334E-4	
1741940553915	0.005722046	
1741940553916	0.003967285	
1741940553917	0.0019073486	
1741940553918	0.0012969971	
1741940553919	-0.0021362305	
1741940553920	-0.001373291	
1741940553921	-0.0016784668	
1741940553922	2.2888184E-4	
1741940553923	0.0024414062	
1741940553924	0.0046539307	
1741940553925	0.0035858154	
1741940553926	0.0036621094	
1741940553927	0.008926392	
1741940553928	0.0029754639	
1741940553929	0.0019836426	
1741940553930	0.004501343	
1741940553931	-0.00541687	
1741940553932	-0.0022125244	
1741940553933	0.006790161	
1741940553934	0.0031280518	
1741940553935	6.866455E-4	
1741940553936	7.6293945E-4	
1741940553937	-0.009231567	
1741940553938	-0.011367798	
1741940553939	-0.0017547607	
1741940553940	-1.5258789E-4	
1741940553941	-4.5776367E-4	
1741940553942	9.1552734E-4	
1741940553943	0.0017547607	
1741940553944	-0.0012207031	
1741940553945	-0.004196167	
1741940553946	-0.0021362305	
1741940553947	0.0012207031	
1741940553948	0.004272461	
1741940553949	0.0012969971	
1741940553950	3.0517578E-4	
1741940553951	2.2888184E-4	
1741940553952	-0.0037384033	
1741940553953	7.6293945E-4	
1741940553954	0.0022125244	
1741940553955	-7.6293945E-5	
1741940553956	5.340576E-4	
1741940553957	0.0019073486	
1741940553958	0.005493164	
1741940553959	0.006866455	
1741940553960	-0.0022888184	
1741940553961	-0.013504028	
1741940553962	-0.004272461	
1741940553963	9.918213E-4	
1741940553964	-0.004272461	
1741940553965	-2.2888184E-4	
1741940553966	-0.0024414062	
1741940553967	-0.0024414062	
1741940553968	-0.001449585	
1741940553969	-0.0090789795	
1741940553970	-0.0062561035	
1741940553971	0.009231567	
1741940553972	0.018539429	
1741940553973	0.012741089	
1741940553974	0.004043579	
1741940553975	7.6293945E-5	
1741940553976	-3.0517578E-4	
1741940553977	-0.0019073486	
1741940553978	-0.0025939941	
1741940553979	0.0015258789	
1741940553980	8.392334E-4	
1741940553981	-0.0017547607	
1741940553982	-0.0046539307	
1741940553983	-0.004043579	
1741940553984	0.0029754639	
1741940553985	0.0059509277	
1741940553986	0.0030517578	
1741940553987	-6.866455E-4	
1741940553988	-0.004501343	
1741940553989	-0.0032043457	
1741940553990	-0.0035858154	
1741940553991	-0.0017547607	
1741940553992	9.918213E-4	
1741940553993	-0.004119873	
1741940553994	-0.0033569336	
1741940553995	-0.0015258789	
1741940553996	-0.008010864	
1741940553997	-0.008468628	
1741940553998	3.8146973E-4	
1741940553999	0.008163452	
1741940554000	0.0059509277	
1741940554001	0.009765625	
1741940554002	0.010986328	
1741940554003	-0.0015258789	
1741940554004	-0.0047302246	
1741940554005	-9.918213E-4	
1741940554006	-0.0019836426	
1741940554007	-0.006866455	
1741940554008	-0.0051116943	
1741940554009	0.0051116943	
1741940554010	0.0073242188	
1741940554011	0.00869751	
1741940554012	0.009689331	
1741940554013	6.866455E-4	
1741940554014	-0.0032806396	
1741940554015	-0.0011444092	
1741940554016	-0.0019836426	
1741940554017	0.0032806396	
1741940554018	0.0	
1741940554019	-0.0060272217	
1741940554020	6.866455E-4	
1741940554021	-0.0038146973	
1741940554022	-0.010757446	
1741940554023	-3.0517578E-4	
1741940554024	0.004043579	
1741940554025	-0.002746582	
1741940554026	-0.0017547607	
1741940554027	-0.0022125244	
1741940554028	-0.0061798096	
1741940554029	-0.004043579	
1741940554030	6.1035156E-4	
1741940554031	-6.1035156E-4	
1741940554032	9.918213E-4	
1741940554033	0.002746582	
1741940554034	9.1552734E-4	
1741940554035	3.0517578E-4	
1741940554036	0.007247925	
1741940554037	0.014572144	
1741940554038	0.0012207031	
1741940554039	-0.0037384033	
1741940554040	0.0047302246	
1741940554041	0.0033569336	
1741940554042	0.0035095215	
1741940554043	-0.0024414062	
1741940554044	-0.0033569336	
1741940554045	0.004043579	
1741940554046	-0.0032043457	
1741940554047	-0.0045776367	
1741940554048	-0.0029754639	
1741940554049	-0.004119873	
1741940554050	-0.0016784668	
1741940554051	-0.0065612793	
1741940554052	-0.0051116943	
1741940554053	0.0020599365	
1741940554054	-0.0029754639	
1741940554055	-8.392334E-4	
1741940554056	0.004272461	
1741940554057	-0.001449585	
1741940554058	0.001373291	
1741940554059	0.0017547607	
1741940554060	-7.6293945E-4	
1741940554061	0.0019836426	
1741940554062	7.6293945E-5	
1741940554063	6.1035156E-4	
1741940554064	0.0025939941	
1741940554065	-0.002670288	
1741940554066	0.001373291	
1741940554067	0.0061035156	
1741940554068	-1.5258789E-4	
1741940554069	0.0032806396	
1741940554070	-3.8146973E-4	
1741940554071	-0.0031280518	
1741940554072	7.6293945E-4	
1741940554073	-0.0022888184	
1741940554074	0.0066375732	
1741940554075	0.005874634	
1741940554076	-0.007019043	
1741940554077	-0.0017547607	
1741940554078	0.0010681152	
1741940554079	-0.0047302246	
1741940554080	3.0517578E-4	
1741940554081	0.0061035156	
1741940554082	9.918213E-4	
1741940554083	-0.0019836426	
1741940554084	-6.866455E-4	
1741940554085	7.6293945E-5	
1741940554086	0.005569458	
1741940554087	3.8146973E-4	
1741940554088	-0.006713867	
1741940554089	-0.0012207031	
1741940554090	-0.005569458	
1741940554091	-0.008850098	
1741940554092	-0.0025177002	
1741940554093	0.004043579	
1741940554094	0.0051879883	
1741940554095	0.0022125244	
1741940554096	0.0035095215	
1741940554097	-4.5776367E-4	
1741940554098	-0.0021362305	
1741940554099	0.0024414062	
1741940554100	0.0018310547	
1741940554101	0.0020599365	
1741940554102	0.0031280518	
1741940554103	3.8146973E-4	
1741940554104	-0.0048828125	
1741940554105	-0.0064849854	
1741940554106	-5.340576E-4	
1741940554107	0.0050354004	
1741940554108	0.0029754639	
1741940554109	0.0010681152	
1741940554110	0.0051879883	
1741940554111	0.004501343	
1741940554112	-0.0033569336	
1741940554113	-0.006942749	
1741940554114	-0.0038909912	
1741940554115	7.6293945E-5	
1741940554116	-3.0517578E-4	
1741940554117	1.5258789E-4	
1741940554118	6.1035156E-4	
1741940554119	-0.0046539307	
1741940554120	-0.0038909912	
1741940554121	5.340576E-4	
1741940554122	0.0016784668	
1741940554123	-0.0047302246	
1741940554124	-0.0064086914	
1741940554125	-5.340576E-4	
1741940554126	-0.0022125244	
1741940554127	5.340576E-4	
1741940554128	0.0063323975	
1741940554129	0.0077819824	
1741940554130	0.01159668	
1741940554131	0.008087158	
1741940554132	-0.004119873	
1741940554133	-0.010604858	
1741940554134	7.6293945E-4	
1741940554135	0.010299683	
1741940554136	-0.004119873	
1741940554137	-0.00793457	
1741940554138	0.0029754639	
1741940554139	0.0	
1741940554140	-0.0015258789	
1741940554141	-5.340576E-4	
1741940554142	-7.6293945E-4	
1741940554143	0.001373291	
1741940554144	-3.0517578E-4	
1741940554145	-0.0019073486	
1741940554146	8.392334E-4	
1741940554147	9.1552734E-4	
1741940554148	9.918213E-4	
1741940554149	0.005569458	
1741940554150	0.00869751	
1741940554151	-1.5258789E-4	
1741940554152	-0.009918213	
1741940554153	-0.0029754639	
1741940554154	0.002822876	
1741940554155	-0.0019073486	
1741940554156	-0.0077819824	
1741940554157	-0.010757446	
1741940554158	-0.003967285	
1741940554159	0.0065612793	
1741940554160	0.015106201	
1741940554161	0.01625061	
1741940554162	3.8146973E-4	
1741940554163	-0.010604858	
1741940554164	-0.007247925	
1741940554165	-0.0025177002	
1741940554166	0.001449585	
1741940554167	-7.6293945E-5	
1741940554168	0.0045776367	
1741940554169	0.0025177002	
1741940554170	-0.0074768066	
1741940554171	-0.0051116943	
1741940554172	-0.0049591064	
1741940554173	-0.008239746	
1741940554174	-0.00541687	
1741940554175	0.005569458	
1741940554176	0.00831604	
1741940554177	-0.0031280518	
1741940554178	-0.0047302246	
1741940554179	-0.0045776367	
1741940554180	0.0033569336	
1741940554181	0.02532959	
1741940554182	0.02670288	
1741940554183	0.012283325	
1741940554184	-0.0021362305	
1741940554185	-0.012359619	
1741940554186	-0.004119873	
1741940554187	0.011138916	
1741940554188	0.018234253	
1741940554189	0.004196167	
1741940554190	-0.014953613	
1741940554191	-0.020446777	
1741940554192	-0.018539429	
1741940554193	-0.013885498	
1741940554194	-0.015182495	
1741940554195	-0.0064086914	
1741940554196	-0.0019073486	
1741940554197	-0.0060272217	
1741940554198	-0.0015258789	
1741940554199	-0.004501343	
1741940554200	-0.0025939941	
1741940554201	0.0038146973	
1741940554202	0.0048828125	
1741940554203	0.009613037	
1741940554204	0.0063323975	
1741940554205	-0.0021362305	
1741940554206	-0.0010681152	
1741940554207	-0.0012207031	
1741940554208	-0.0018310547	
1741940554209	0.0037384033	
1741940554210	0.002822876	
1741940554211	0.013198853	
1741940554212	0.025177002	
1741940554213	0.012359619	
1741940554214	0.00869751	
1741940554215	0.015029907	
1741940554216	-1.5258789E-4	
1741940554217	-0.011749268	
1741940554218	-5.340576E-4	
1741940554219	6.866455E-4	
1741940554220	-0.0059509277	
1741940554221	-0.0019073486	
1741940554222	-0.0045776367	
1741940554223	-0.007171631	
1741940554224	-0.0035858154	
1741940554225	-0.0064849854	
1741940554226	-0.010223389	
1741940554227	-0.008544922	
1741940554228	-0.002670288	
1741940554229	-0.0033569336	
1741940554230	-0.0061798096	
1741940554231	-2.2888184E-4	
1741940554232	0.0011444092	
1741940554233	-0.0037384033	
1741940554234	-0.004425049	
1741940554235	-0.0032806396	
1741940554236	3.0517578E-4	
1741940554237	0.0019073486	
1741940554238	0.0048828125	
1741940554239	0.012054443	
1741940554240	0.004425049	
1741940554241	-2.2888184E-4	
1741940554242	0.0064849854	
1741940554243	0.003967285	
1741940554244	0.0011444092	
1741940554245	-0.0010681152	
1741940554246	0.001373291	
1741940554247	0.007171631	
1741940554248	-0.0020599365	
1741940554249	-0.0018310547	
1741940554250	0.009155273	
1741940554251	0.004348755	
1741940554252	-0.0037384033	
1741940554253	-0.008163452	
1741940554254	-0.009384155	
1741940554255	-0.010299683	
1741940554256	-0.017471313	
1741940554257	-0.015411377	
1741940554258	0.0030517578	
1741940554259	0.019378662	
1741940554260	0.013961792	
1741940554261	0.0019073486	
1741940554262	-0.001449585	
1741940554263	-0.010147095	
1741940554264	-0.030822754	
1741940554265	-0.02357483	
1741940554266	0.054626465	
1741940554267	0.105285645	
1741940554268	0.044555664	
1741940554269	-0.0050354004	
1741940554270	-0.0064849854	
1741940554271	-0.024032593	
1741940554272	-0.026931763	
1741940554273	-0.02418518	
1741940554274	-0.02571106	
1741940554275	-0.026550293	
1741940554276	-0.051193237	
1741940554277	-0.058135986	
1741940554278	-0.034713745	
1741940554279	0.002746582	
1741940554280	0.029144287	
1741940554281	0.037384033	
1741940554282	0.095443726	
1741940554283	0.16716003	
1741940554284	0.10734558	
1741940554285	-0.098724365	
1741940554286	-0.22247314	
1741940554287	-0.14884949	
1741940554288	-0.049209595	
1741940554289	0.0051116943	
1741940554290	0.052108765	
1741940554291	0.056915283	
1741940554292	0.060272217	
1741940554293	0.05706787	
1741940554294	0.024871826	
1741940554295	0.022506714	
1741940554296	0.0132751465	
1741940554297	0.0012207031	
1741940554298	-7.6293945E-4	
1741940554299	-0.021743774	
1741940554300	-0.012054443	
1741940554301	0.005645752	
1741940554302	0.007019043	
1741940554303	-0.0033569336	
1741940554304	-0.021972656	
1741940554305	0.004196167	
1741940554306	0.041503906	
1741940554307	0.024261475	
1741940554308	-0.014724731	
1741940554309	-0.033569336	
1741940554310	-0.049362183	
1741940554311	-0.021972656	
1741940554312	0.015716553	
1741940554313	0.0035858154	
1741940554314	0.015945435	
1741940554315	0.014190674	
1741940554316	-0.015258789	
1741940554317	-0.014953613	
1741940554318	-0.013656616	
1741940554319	-0.0059509277	
1741940554320	-0.0032806396	
1741940554321	-0.009155273	
1741940554322	-0.0051116943	
1741940554323	-0.0029754639	
1741940554324	2.2888184E-4	
1741940554325	0.012130737	
1741940554326	0.025405884	
1741940554327	0.015411377	
1741940554328	0.009002686	
1741940554329	0.030822754	
1741940554330	0.028457642	
1741940554331	-0.0051879883	
1741940554332	-0.03868103	
1741940554333	-0.054473877	
1741940554334	-0.018310547	
1741940554335	0.019760132	
1741940554336	-0.015792847	
1741940554337	-0.01449585	
1741940554338	0.035247803	
1741940554339	0.030899048	
1741940554340	0.06210327	
1741940554341	0.063705444	
1741940554342	-0.025177002	
1741940554343	-0.06614685	
1741940554344	-0.07980347	
1741940554345	-0.0806427	
1741940554346	-0.05355835	
1741940554347	-0.041809082	
1741940554348	-0.021972656	
1741940554349	0.013580322	
1741940554350	0.053710938	
1741940554351	0.09971619	
1741940554352	0.089416504	
1741940554353	0.01914978	
1741940554354	0.042114258	
1741940554355	0.096969604	
1741940554356	0.09109497	
1741940554357	0.051345825	
1741940554358	-0.08583069	
1741940554359	-0.14305115	
1741940554360	-0.062942505	
1741940554361	-0.018920898	
1741940554362	0.032348633	
1741940554363	0.07949829	
1741940554364	0.08308411	
1741940554365	0.040512085	
1741940554366	-0.04524231	
1741940554367	-0.06599426	
1741940554368	-0.077056885	
1741940554369	-0.15510559	
1741940554370	-0.14884949	
1741940554371	-0.053100586	
1741940554372	0.031204224	
1741940554373	0.06355286	
1741940554374	0.029525757	
1741940554375	0.010375977	
1741940554376	0.00831604	
1741940554377	-0.04081726	
1741940554378	-0.06088257	
1741940554379	0.027313232	
1741940554380	0.082473755	
1741940554381	0.046463013	
1741940554382	0.07041931	
1741940554383	0.0945282	
1741940554384	0.03501892	
1741940554385	0.02708435	
1741940554386	0.016098022	
1741940554387	-0.05355835	
1741940554388	-0.011444092	
1741940554389	0.052642822	
1741940554390	0.014953613	
1741940554391	0.0046539307	
1741940554392	0.016174316	
1741940554393	0.014266968	
1741940554394	0.005569458	
1741940554395	-0.022659302	
1741940554396	-0.04890442	
1741940554397	-0.09185791	
1741940554398	-0.11413574	
1741940554399	-0.076675415	
1741940554400	-0.009155273	
1741940554401	0.038528442	
1741940554402	0.05355835	
1741940554403	0.07545471	
1741940554404	0.070877075	
1741940554405	0.0146484375	
1741940554406	-0.032730103	
1741940554407	-0.007171631	
1741940554408	0.014724731	
1741940554409	-9.1552734E-4	
1741940554410	0.0019836426	
1741940554411	-0.027618408	
1741940554412	-0.029678345	
1741940554413	0.0074005127	
1741940554414	-9.1552734E-4	
1741940554415	-0.027160645	
1741940554416	-0.047073364	
1741940554417	-0.0680542	
1741940554418	-0.07583618	
1741940554419	-0.013580322	
1741940554420	0.07141113	
1741940554421	0.037384033	
1741940554422	-0.022735596	
1741940554423	0.008926392	
1741940554424	0.034942627	
1741940554425	0.035247803	
1741940554426	0.031433105	
1741940554427	0.040130615	
1741940554428	0.041656494	
1741940554429	0.0074005127	
1741940554430	0.009765625	
1741940554431	0.017700195	
1741940554432	0.0075531006	
1741940554433	0.014572144	
1741940554434	0.012664795	
1741940554435	0.01373291	
1741940554436	0.0051116943	
1741940554437	-0.010910034	
1741940554438	-0.01449585	
1741940554439	-0.022735596	
1741940554440	-0.033721924	
1741940554441	-0.02746582	
1741940554442	0.019989014	
1741940554443	0.037231445	
1741940554444	-0.008544922	
1741940554445	-0.026473999	
1741940554446	-0.040893555	
1741940554447	-0.09239197	
1741940554448	-0.08255005	
1741940554449	0.01121521	
1741940554450	0.05317688	
1741940554451	0.036392212	
1741940554452	0.01777649	
1741940554453	-0.007858276	
1741940554454	0.0066375732	
1741940554455	0.032424927	
1741940554456	0.00869751	
1741940554457	-0.017089844	
1741940554458	-0.0064086914	
1741940554459	0.004272461	
1741940554460	0.00579834	
1741940554461	0.006942749	
1741940554462	0.0024414062	
1741940554463	0.0038146973	
1741940554464	0.00579834	
1741940554465	0.0064086914	
1741940554466	0.004272461	
1741940554467	-0.002670288	
1741940554468	-0.0038146973	
1741940554469	-1.5258789E-4	
1741940554470	-3.8146973E-4	
1741940554471	-0.0021362305	
1741940554472	-1.5258789E-4	
1741940554473	0.008392334	
1741940554474	0.009613037	
1741940554475	-0.00289917	
1741940554476	0.0035858154	
1741940554477	0.01411438	
1741940554478	9.1552734E-4	
1741940554479	-0.014190674	
1741940554480	-0.02128601	
1741940554481	-0.0050354004	
1741940554482	0.012588501	
1741940554483	-0.0031280518	
1741940554484	-0.019302368	
1741940554485	-0.012207031	
1741940554486	0.00831604	
1741940554487	0.0065612793	
1741940554488	-0.012893677	
1741940554489	-0.030899048	
1741940554490	-0.009613037	
1741940554491	0.04524231	
1741940554492	0.010070801	
1741940554493	-0.027618408	
1741940554494	-0.01953125	
1741940554495	-0.05241394	
1741940554496	-0.008392334	
1741940554497	0.02708435	
1741940554498	-0.027770996	
1741940554499	0.012969971	
1741940554500	0.08728027	
1741940554501	0.08300781	
1741940554502	0.061798096	
1741940554503	0.02456665	
1741940554504	-0.0104522705	
1741940554505	-0.01838684	
1741940554506	-0.020217896	
1741940554507	-0.015563965	
1741940554508	-0.018157959	
1741940554509	-0.047225952	
1741940554510	-0.03883362	
1741940554511	0.007095337	
1741940554512	0.027389526	
1741940554513	0.033569336	
1741940554514	0.013122559	
1741940554515	-0.010299683	
1741940554516	-0.0061035156	
1741940554517	-0.013504028	
1741940554518	-0.029373169	
1741940554519	-0.030975342	
1741940554520	-0.016708374	
1741940554521	-0.021133423	
1741940554522	-0.024337769	
1741940554523	-0.0031280518	
1741940554524	0.031661987	
1741940554525	0.046463013	
1741940554526	-0.01449585	
1741940554527	-0.044555664	
1741940554528	-0.029449463	
1741940554529	-0.029067993	
1741940554530	0.0036621094	
1741940554531	0.0019073486	
1741940554532	0.0061798096	
1741940554533	0.035095215	
1741940554534	0.020599365	
1741940554535	0.025634766	
1741940554536	0.041046143	
1741940554537	0.057296753	
1741940554538	0.047454834	
1741940554539	0.018692017	
1741940554540	0.015029907	
1741940554541	-0.015106201	
1741940554542	-0.026550293	
1741940554543	-0.021438599	
1741940554544	-0.024642944	
1741940554545	-2.2888184E-4	
1741940554546	-0.0077056885	
1741940554547	-0.02822876	
1741940554548	-0.019302368	
1741940554549	-0.01739502	
1741940554550	-0.0066375732	
1741940554551	0.0	
1741940554552	-0.016403198	
1741940554553	-0.011444092	
1741940554554	-0.0073242188	
1741940554555	-0.007247925	
1741940554556	0.007247925	
1741940554557	0.0038909912	
1741940554558	0.0034332275	
1741940554559	0.007247925	
1741940554560	0.0051879883	
1741940554561	0.0077056885	
1741940554562	0.004348755	
1741940554563	2.2888184E-4	
1741940554564	-0.001373291	
1741940554565	0.002670288	
1741940554566	0.0064849854	
1741940554567	0.007247925	
1741940554568	0.01411438	
1741940554569	0.011367798	
1741940554570	0.004119873	
1741940554571	0.0020599365	
1741940554572	-0.0038909912	
1741940554573	-0.010757446	
1741940554574	-0.019378662	
1741940554575	-0.01449585	
1741940554576	0.003967285	
1741940554577	0.009918213	
1741940554578	0.013580322	
1741940554579	0.014190674	
1741940554580	0.0065612793	
1741940554581	0.0048065186	
1741940554582	-0.0038146973	
1741940554583	-0.005874634	
1741940554584	-0.0062561035	
1741940554585	-0.0077056885	
1741940554586	0.02357483	
1741940554587	0.05241394	
1741940554588	0.042037964	
1741940554589	0.013656616	
1741940554590	1.5258789E-4	
1741940554591	-0.04348755	
1741940554592	-0.15586853	
1741940554593	-0.15983582	
1741940554594	-0.0806427	
1741940554595	-0.06263733	
1741940554596	0.043411255	
1741940554597	0.13160706	
1741940554598	0.073013306	
1741940554599	0.06439209	
1741940554600	0.078811646	
1741940554601	0.052337646	
1741940554602	0.038757324	
1741940554603	0.036697388	
1741940554604	0.053863525	
1741940554605	0.046920776	
1741940554606	0.005340576	
1741940554607	-0.11123657	
1741940554608	-0.18997192	
1741940554609	-0.11428833	
1741940554610	-0.027694702	
1741940554611	0.058670044	
1741940554612	0.09109497	
1741940554613	0.03173828	
1741940554614	-0.013504028	
1741940554615	-0.0617218	
1741940554616	0.0032043457	
1741940554617	0.14289856	
1741940554618	0.09841919	
1741940554619	0.0021362305	
1741940554620	-0.011749268	
1741940554621	-0.07217407	
1741940554622	-0.043640137	
1741940554623	0.08888245	
1741940554624	0.08224487	
1741940554625	-0.011520386	
1741940554626	-0.100097656	
1741940554627	-0.15266418	
1741940554628	-0.12580872	
1741940554629	-0.09475708	
1741940554630	-0.07720947	
1741940554631	-0.035247803	
1741940554632	-0.02609253	
1741940554633	0.012207031	
1741940554634	0.10406494	
1741940554635	0.09147644	
1741940554636	0.0440979	
1741940554637	0.053100586	
1741940554638	0.027618408	
1741940554639	0.014038086	
1741940554640	0.06896973	
1741940554641	0.109176636	
1741940554642	0.078201294	
1741940554643	0.09841919	
1741940554644	0.14755249	
1741940554645	0.018615723	
1741940554646	-0.066986084	
1741940554647	0.019607544	
1741940554648	-0.005340576	
1741940554649	-0.13206482	
1741940554650	-0.20614624	
1741940554651	-0.205307	
1741940554652	-0.19218445	
1741940554653	-0.19676208	
1741940554654	-0.02609253	
1741940554655	0.1373291	
1741940554656	0.0667572	
1741940554657	0.07034302	
1741940554658	0.16235352	
1741940554659	0.14404297	
1741940554660	0.09063721	
1741940554661	0.037841797	
1741940554662	-0.018005371	
1741940554663	-0.01449585	
1741940554664	-3.0517578E-4	
1741940554665	0.010528564	
1741940554666	0.02243042	
1741940554667	-0.014953613	
1741940554668	-0.041427612	
1741940554669	-0.04310608	
1741940554670	-0.06484985	
1741940554671	-0.06317139	
1741940554672	-0.026550293	
1741940554673	0.0146484375	
1741940554674	0.036849976	
1741940554675	0.02128601	
1741940554676	0.0017547607	
1741940554677	-0.030441284	
1741940554678	-0.06889343	
1741940554679	-0.054855347	
1741940554680	0.0010681152	
1741940554681	0.046844482	
1741940554682	0.066223145	
1741940554683	0.07873535	
1741940554684	0.022125244	
1741940554685	-0.012054443	
1741940554686	0.009841919	
1741940554687	-0.021514893	
1741940554688	0.01121521	
1741940554689	0.044326782	
1741940554690	-3.0517578E-4	
1741940554691	0.009689331	
1741940554692	0.022277832	
1741940554693	0.0022125244	
1741940554694	-0.013885498	
1741940554695	-0.062179565	
1741940554696	-0.091171265	
1741940554697	-0.055847168	
1741940554698	-0.026321411	
1741940554699	-0.011749268	
1741940554700	6.866455E-4	
1741940554701	0.0104522705	
1741940554702	0.03807068	
1741940554703	0.058135986	
1741940554704	0.049438477	
1741940554705	0.012817383	
1741940554706	-0.01701355	
1741940554707	-0.036392212	
1741940554708	-0.032730103	
1741940554709	0.019378662	
1741940554710	0.030975342	
1741940554711	0.008087158	
1741940554712	0.00869751	
1741940554713	6.866455E-4	
1741940554714	-0.002746582	
1741940554715	0.0015258789	
1741940554716	0.0016021729	
1741940554717	0.00579834	
1741940554718	0.007095337	
1741940554719	-0.001373291	
1741940554720	-0.006790161	
1741940554721	-0.0034332275	
1741940554722	0.0061798096	
1741940554723	0.015640259	
1741940554724	8.392334E-4	
1741940554725	-0.011978149	
1741940554726	-0.0063323975	
1741940554727	-0.009231567	
1741940554728	-0.004425049	
1741940554729	0.0012207031	
1741940554730	-0.0049591064	
1741940554731	-0.01449585	
1741940554732	-0.010223389	
1741940554733	0.004348755	
1741940554734	0.0046539307	
1741940554735	0.0047302246	
1741940554736	0.0045776367	
1741940554737	-1.5258789E-4	
1741940554738	0.003967285	
1741940554739	0.0011444092	
1741940554740	-0.004272461	
1741940554741	-0.0010681152	
1741940554742	9.918213E-4	
1741940554743	-0.0031280518	
1741940554744	-1.5258789E-4	
1741940554745	0.0029754639	
1741940554746	-0.0035095215	
1741940554747	-0.0064086914	
1741940554748	-0.0048065186	
1741940554749	-0.0033569336	
1741940554750	0.0048828125	
1741940554751	0.0038909912	
1741940554752	-0.0048828125	
1741940554753	-0.0032806396	
1741940554754	-1.5258789E-4	
1741940554755	0.002746582	
1741940554756	-9.1552734E-4	
1741940554757	-0.0030517578	
1741940554758	-6.1035156E-4	
1741940554759	-0.0025177002	
1741940554760	-0.0011444092	
1741940554761	0.004501343	
1741940554762	0.005874634	
1741940554763	0.00869751	
1741940554764	0.009689331	
1741940554765	0.0022125244	
1741940554766	-6.1035156E-4	
1741940554767	0.004501343	
1741940554768	0.005569458	
1741940554769	0.0038909912	
1741940554770	-0.0047302246	
1741940554771	-0.011520386	
1741940554772	-0.0048065186	
1741940554773	0.0010681152	
1741940554774	-0.0017547607	
1741940554775	-8.392334E-4	
1741940554776	-2.2888184E-4	
1741940554777	-0.012664795	
1741940554778	-0.02670288	
1741940554779	-0.032424927	
1741940554780	-0.021209717	
1741940554781	6.1035156E-4	
1741940554782	0.038223267	
1741940554783	0.089416504	
1741940554784	0.07148743	
1741940554785	4.5776367E-4	
1741940554786	-0.024795532	
1741940554787	-0.030212402	
1741940554788	-0.018997192	
1741940554789	9.918213E-4	
1741940554790	-0.012435913	
1741940554791	-0.023651123	
1741940554792	-0.01777649	
1741940554793	-0.014572144	
1741940554794	-0.021514893	
1741940554795	-0.02670288	
1741940554796	-0.008468628	
1741940554797	0.02067566	
1741940554798	0.032730103	
1741940554799	0.03265381	
1741940554800	0.018234253	
1741940554801	-0.008621216	
1741940554802	-0.013198853	
1741940554803	-0.0065612793	
1741940554804	-0.0017547607	
1741940554805	0.0	
1741940554806	-0.0033569336	
1741940554807	0.0030517578	
1741940554808	0.002822876	
1741940554809	0.0032043457	
1741940554810	0.008010864	
1741940554811	-6.866455E-4	
1741940554812	-1.5258789E-4	
1741940554813	0.009002686	
1741940554814	0.005493164	
1741940554815	-0.003967285	
1741940554816	-0.007858276	
1741940554817	-0.020065308	
1741940554818	-0.02609253	
1741940554819	-0.00289917	
1741940554820	0.016860962	
1741940554821	0.011444092	
1741940554822	0.012893677	
1741940554823	0.018005371	
1741940554824	0.0076293945	
1741940554825	-0.0036621094	
1741940554826	-0.008544922	
1741940554827	-0.0010681152	
1741940554828	0.0146484375	
1741940554829	0.010757446	
1741940554830	-0.022583008	
1741940554831	-0.032730103	
1741940554832	-0.0046539307	
1741940554833	0.018615723	
1741940554834	0.038528442	
1741940554835	0.054626465	
1741940554836	0.054092407	
1741940554837	-0.008239746	
1741940554838	-0.08811951	
1741940554839	-0.043182373	
1741940554840	0.013198853	
1741940554841	0.0051116943	
1741940554842	-0.012283325	
1741940554843	-0.08895874	
1741940554844	-0.08468628	
1741940554845	0.0019073486	
1741940554846	0.035476685	
1741940554847	0.06225586	
1741940554848	0.049819946	
1741940554849	0.005569458	
1741940554850	-0.014724731	
1741940554851	-0.01121521	
1741940554852	3.0517578E-4	
1741940554853	-0.0047302246	
1741940554854	-0.005569458	
1741940554855	-0.011749268	
1741940554856	-0.018463135	
1741940554857	-0.0038146973	
1741940554858	0.0032043457	
1741940554859	0.023117065	
1741940554860	0.055389404	
1741940554861	0.040283203	
1741940554862	0.008926392	
1741940554863	-0.011138916	
1741940554864	-0.03227234	
1741940554865	-0.023880005	
1741940554866	-0.0051116943	
1741940554867	0.008850098	
1741940554868	0.031814575	
1741940554869	0.034484863	
1741940554870	0.018081665	
1741940554871	-0.0073242188	
1741940554872	-0.014953613	
1741940554873	0.011672974	
1741940554874	0.018539429	
1741940554875	-0.00793457	
1741940554876	-0.028686523	
1741940554877	-0.02166748	
1741940554878	-0.005569458	
1741940554879	-0.0060272217	
1741940554880	-0.0061798096	
1741940554881	-0.0012969971	
1741940554882	-0.009384155	
1741940554883	-0.024032593	
1741940554884	-0.019378662	
1741940554885	0.0016021729	
1741940554886	0.008239746	
1741940554887	0.020599365	
1741940554888	0.03265381	
1741940554889	0.0060272217	
1741940554890	-0.006866455	
1741940554891	-0.0012969971	
1741940554892	-0.010147095	
1741940554893	-0.009841919	
1741940554894	-0.0062561035	
1741940554895	-0.004119873	
1741940554896	-0.006866455	
1741940554897	-0.006790161	
1741940554898	0.0019073486	
1741940554899	-0.00289917	
1741940554900	-0.002746582	
1741940554901	0.0019836426	
1741940554902	0.0035095215	
1741940554903	0.016708374	
1741940554904	0.016174316	
1741940554905	0.0	
1741940554906	-0.007019043	
1741940554907	-0.013427734	
1741940554908	-0.013427734	
1741940554909	-0.006866455	
1741940554910	-0.011749268	
1741940554911	-0.007171631	
1741940554912	0.007019043	
1741940554913	0.006942749	
1741940554914	0.006942749	
1741940554915	0.009689331	
1741940554916	-0.0019073486	
1741940554917	-0.012359619	
1741940554918	-0.0077819824	
1741940554919	0.0018310547	
1741940554920	0.021743774	
1741940554921	0.03593445	
1741940554922	0.004043579	
1741940554923	-0.02494812	
1741940554924	-0.004501343	
1741940554925	0.018997192	
1741940554926	0.03440857	
1741940554927	0.03768921	
1741940554928	0.018081665	
1741940554929	-0.005340576	
1741940554930	-0.015716553	
1741940554931	-0.01083374	
1741940554932	-0.015945435	
1741940554933	-0.01586914	
1741940554934	-0.012207031	
1741940554935	-0.017089844	
1741940554936	-0.01663208	
1741940554937	-0.019073486	
1741940554938	-0.015563965	
1741940554939	-0.009460449	
1741940554940	-0.010757446	
1741940554941	-0.0077819824	
1741940554942	0.0033569336	
1741940554943	0.01159668	
1741940554944	0.009841919	
1741940554945	0.00793457	
1741940554946	0.005340576	
1741940554947	0.007247925	
1741940554948	0.0077819824	
1741940554949	-0.008087158	
1741940554950	-0.010681152	
1741940554951	-0.001449585	
1741940554952	6.1035156E-4	
1741940554953	0.021896362	
1741940554954	0.046310425	
1741940554955	0.03112793	
1741940554956	0.0038909912	
1741940554957	-0.005569458	
1741940554958	-0.009155273	
1741940554959	-0.005645752	
1741940554960	-9.918213E-4	
1741940554961	-0.01121521	
1741940554962	-0.01586914	
1741940554963	-0.010299683	
1741940554964	-0.0029754639	
1741940554965	0.001449585	
1741940554966	-0.0077819824	
1741940554967	-0.018463135	
1741940554968	-0.023651123	
1741940554969	-0.013198853	
1741940554970	0.0074768066	
1741940554971	0.017623901	
1741940554972	0.03074646	
1741940554973	0.021591187	
1741940554974	-0.019989014	
1741940554975	-0.024642944	
1741940554976	0.004501343	
1741940554977	0.024490356	
1741940554978	0.039749146	
1741940554979	0.049438477	
1741940554980	0.029525757	
1741940554981	-0.013809204	
1741940554982	-0.033187866	
1741940554983	-0.02998352	
1741940554984	-0.034713745	
1741940554985	-0.043792725	
1741940554986	-0.039901733	
1741940554987	-0.025558472	
1741940554988	-0.014877319	
1741940554989	-0.0064086914	
1741940554990	-0.019989014	
1741940554991	-0.020751953	
1741940554992	0.024642944	
1741940554993	0.06515503	
1741940554994	0.07408142	
1741940554995	0.06324768	
1741940554996	0.027923584	
1741940554997	-0.008163452	
1741940554998	0.004348755	
1741940554999	0.012817383	
1741940555000	-0.02128601	
1741940555001	-0.026016235	
1741940555002	-0.015029907	
1741940555003	-0.009002686	
1741940555004	-0.016784668	
1741940555005	-0.037002563	
1741940555006	-0.025558472	
1741940555007	-0.008087158	
1741940555008	8.392334E-4	
1741940555009	-0.0012207031	
1741940555010	-0.0045776367	
1741940555011	0.0032806396	
1741940555012	0.011672974	
1741940555013	0.019989014	
1741940555014	0.010681152	
1741940555015	-0.0010681152	
1741940555016	-0.001449585	
1741940555017	-0.0050354004	
1741940555018	0.0016021729	
1741940555019	0.023422241	
1741940555020	0.034866333	
1741940555021	0.0010681152	
1741940555022	-0.030593872	
1741940555023	-0.031433105	
1741940555024	-0.023803711	
1741940555025	0.004043579	
1741940555026	0.006790161	
1741940555027	0.0051116943	
1741940555028	0.021591187	
1741940555029	0.018234253	
1741940555030	0.0051879883	
1741940555031	-0.0062561035	
1741940555032	-0.0025177002	
1741940555033	0.018463135	
1741940555034	0.034332275	
1741940555035	0.032730103	
1741940555036	0.008544922	
1741940555037	4.5776367E-4	
1741940555038	0.012054443	
1741940555039	0.008087158	
1741940555040	0.0	
1741940555041	9.918213E-4	
1741940555042	-0.029449463	
1741940555043	-0.080718994	
1741940555044	-0.079956055	
1741940555045	-0.044784546	
1741940555046	-0.028381348	
1741940555047	-0.009841919	
1741940555048	-0.0022125244	
1741940555049	-0.02532959	
1741940555050	-0.010299683	
1741940555051	0.039901733	
1741940555052	0.07095337	
1741940555053	0.049591064	
1741940555054	0.012588501	
1741940555055	0.013122559	
1741940555056	0.0034332275	
1741940555057	-0.0104522705	
1741940555058	0.0074005127	
1741940555059	0.027236938	
1741940555060	-0.00289917	
1741940555061	-0.060043335	
1741940555062	-0.05569458	
1741940555063	-0.018920898	
1741940555064	0.032043457	
1741940555065	0.106277466	
1741940555066	0.11230469	
1741940555067	0.059814453	
1741940555068	0.038375854	
1741940555069	0.030975342	
1741940555070	-0.011749268	
1741940555071	-0.07270813	
1741940555072	-0.101242065	
1741940555073	-0.05859375	
1741940555074	0.004348755	
1741940555075	-0.017318726	
1741940555076	-0.031585693	
1741940555077	0.029067993	
1741940555078	0.04486084	
1741940555079	0.0017547607	
1741940555080	-0.030517578	
1741940555081	-0.04623413	
1741940555082	-0.060958862	
1741940555083	-0.03303528	
1741940555084	-0.005645752	
1741940555085	-0.009994507	
1741940555086	0.025634766	
1741940555087	0.06492615	
1741940555088	0.04196167	
1741940555089	-0.01373291	
1741940555090	-0.08010864	
1741940555091	-0.124816895	
1741940555092	-0.061569214	
1741940555093	0.050430298	
1741940555094	0.075302124	
1741940555095	0.06790161	
1741940555096	0.040130615	
1741940555097	-0.0047302246	
1741940555098	-0.0032043457	
1741940555099	0.012512207	
1741940555100	0.03135681	
1741940555101	0.0415802	
1741940555102	0.056991577	
1741940555103	0.0843811	
1741940555104	0.029830933	
1741940555105	-0.05203247	
1741940555106	-0.04524231	
1741940555107	-0.030212402	
1741940555108	-0.030670166	
1741940555109	-0.0050354004	
1741940555110	0.009460449	
1741940555111	0.04348755	
1741940555112	0.07354736	
1741940555113	0.019378662	
1741940555114	-0.015029907	
1741940555115	0.025253296	
1741940555116	0.022125244	
1741940555117	-0.024490356	
1741940555118	-0.04257202	
1741940555119	-0.0466156	
1741940555120	-0.04081726	
1741940555121	-0.020446777	
1741940555122	-0.0032806396	
1741940555123	-0.014724731	
1741940555124	-0.08178711	
1741940555125	-0.12878418	
1741940555126	-0.0844574	
1741940555127	-0.029830933	
1741940555128	0.052490234	
1741940555129	0.12809753	
1741940555130	0.069885254	
1741940555131	0.008850098	
1741940555132	5.340576E-4	
1741940555133	-0.053863525	
1741940555134	-0.06187439	
1741940555135	-0.022201538	
1741940555136	-7.6293945E-4	
1741940555137	0.0146484375	
1741940555138	-0.05859375	
1741940555139	-0.09338379	
1741940555140	0.01625061	
1741940555141	0.07499695	
1741940555142	0.07469177	
1741940555143	0.09811401	
1741940555144	0.13038635	
1741940555145	0.14686584	
1741940555146	0.0907135	
1741940555147	0.020523071	
1741940555148	-0.020217896	
1741940555149	-0.053329468	
1741940555150	-0.048065186	
1741940555151	-0.0073242188	
1741940555152	0.040664673	
1741940555153	-0.0034332275	
1741940555154	-0.11528015	
1741940555155	-0.11222839	
1741940555156	-0.059890747	
1741940555157	-0.03593445	
1741940555158	0.013580322	
1741940555159	0.018692017	
1741940555160	0.012054443	
1741940555161	0.02029419	
1741940555162	0.008926392	
1741940555163	0.0045776367	
1741940555164	-0.0012969971	
1741940555165	-0.004425049	
1741940555166	-0.0061798096	
1741940555167	-0.0066375732	
1741940555168	0.0064086914	
1741940555169	0.008850098	
1741940555170	-7.6293945E-5	
1741940555171	-0.017623901	
1741940555172	-0.03112793	
1741940555173	-0.015563965	
1741940555174	-0.0032043457	
1741940555175	0.019760132	
1741940555176	0.07614136	
1741940555177	0.08239746	
1741940555178	0.033798218	
1741940555179	0.014724731	
1741940555180	-0.005493164	
1741940555181	-0.038909912	
1741940555182	-0.06790161	
1741940555183	-0.09559631	
1741940555184	-0.06454468	
1741940555185	0.006790161	
1741940555186	0.06111145	
1741940555187	0.05203247	
1741940555188	0.013885498	
1741940555189	0.019454956	
1741940555190	0.0024414062	
1741940555191	-0.008621216	
1741940555192	0.015335083	
1741940555193	-0.012207031	
1741940555194	-0.032577515	
1741940555195	0.005645752	
1741940555196	0.033569336	
1741940555197	0.041809082	
1741940555198	0.058059692	
1741940555199	0.0017547607	
1741940555200	-0.0894928	
1741940555201	-0.07385254	
1741940555202	-0.043563843	
1741940555203	-0.055236816	
1741940555204	-0.13206482	
1741940555205	-0.22499084	
1741940555206	-0.12992859	
1741940555207	0.050811768	
1741940555208	0.11329651	
1741940555209	0.10635376	
1741940555210	0.14160156	
1741940555211	0.18714905	
1741940555212	0.19355774	
1741940555213	0.12123108	
1741940555214	-0.013427734	
1741940555215	-0.021057129	
1741940555216	0.04638672	
1741940555217	0.05256653	
1741940555218	0.020523071	
1741940555219	0.0045776367	
1741940555220	-0.022277832	
1741940555221	-0.09346008	
1741940555222	-0.079422	
1741940555223	0.019836426	
1741940555224	0.102996826	
1741940555225	0.09887695	
1741940555226	0.0017547607	
1741940555227	-0.08560181	
1741940555228	-0.18974304	
1741940555229	-0.32211304	
1741940555230	-0.32592773	
1741940555231	-0.13183594	
1741940555232	0.011672974	
1741940555233	0.058898926	
1741940555234	0.14312744	
1741940555235	0.108795166	
1741940555236	-0.005493164	
1741940555237	-0.09933472	
1741940555238	-0.14633179	
1741940555239	0.023422241	
1741940555240	0.21194458	
1741940555241	0.19714355	
1741940555242	0.17349243	
1741940555243	0.1361084	
1741940555244	0.07545471	
1741940555245	0.0554657	
1741940555246	0.044631958	
1741940555247	0.109558105	
1741940555248	0.11306763	
1741940555249	-0.02029419	
1741940555250	-0.10864258	
1741940555251	-0.08201599	
1741940555252	-0.03135681	
1741940555253	-0.046539307	
1741940555254	-0.075149536	
1741940555255	-0.087509155	
1741940555256	-0.0894928	
1741940555257	-0.055160522	
1741940555258	0.0059509277	
1741940555259	0.047073364	
1741940555260	0.023422241	
1741940555261	0.012435913	
1741940555262	-0.0031280518	
1741940555263	-0.11253357	
1741940555264	-0.19042969	
1741940555265	-0.1625824	
1741940555266	-0.056381226	
1741940555267	0.047683716	
1741940555268	0.084609985	
1741940555269	0.07614136	
1741940555270	-0.02456665	
1741940555271	-0.04425049	
1741940555272	0.057296753	
1741940555273	0.056533813	
1741940555274	0.06965637	
1741940555275	0.12512207	
1741940555276	0.1210022	
1741940555277	0.13053894	
1741940555278	0.06362915	
1741940555279	-0.03326416	
1741940555280	-0.04096985	
1741940555281	-0.076675415	
1741940555282	-0.029907227	
1741940555283	0.09170532	
1741940555284	0.10139465	
1741940555285	0.034866333	
1741940555286	-0.06225586	
1741940555287	-0.1411438	
1741940555288	-0.16845703	
1741940555289	-0.11955261	
1741940555290	-0.0090789795	
1741940555291	0.044403076	
1741940555292	-0.029067993	
1741940555293	-0.14053345	
1741940555294	-0.07606506	
1741940555295	0.08995056	
1741940555296	0.07316589	
1741940555297	-0.090026855	
1741940555298	-0.16067505	
1741940555299	-0.042800903	
1741940555300	0.076293945	
1741940555301	0.15083313	
1741940555302	0.23368835	
1741940555303	0.14778137	
1741940555304	0.024337769	
1741940555305	0.0063323975	
1741940555306	0.020751953	
1741940555307	0.096969604	
1741940555308	0.18630981	
1741940555309	0.15090942	
1741940555310	-0.017242432	
1741940555311	-0.15556335	
1741940555312	-0.2091217	
1741940555313	-0.18661499	
1741940555314	-0.05393982	
1741940555315	0.058059692	
1741940555316	0.04508972	
1741940555317	-0.023422241	
1741940555318	0.022583008	
1741940555319	0.0793457	
1741940555320	-0.01663208	
1741940555321	-0.038146973	
1741940555322	-0.063705444	
1741940555323	-0.2117157	
1741940555324	-0.19294739	
1741940555325	-0.016403198	
1741940555326	0.03227234	
1741940555327	-0.0065612793	
1741940555328	0.025253296	
1741940555329	0.02861023	
1741940555330	0.021972656	
1741940555331	0.037078857	
1741940555332	0.019226074	
1741940555333	0.059509277	
1741940555334	0.097351074	
1741940555335	-0.016098022	
1741940555336	-0.14785767	
1741940555337	-0.089035034	
1741940555338	0.013885498	
1741940555339	0.049743652	
1741940555340	0.08880615	
1741940555341	-0.012969971	
1741940555342	-0.06523132	
1741940555343	0.13671875	
1741940555344	0.12786865	
1741940555345	0.03227234	
1741940555346	0.17959595	
1741940555347	0.16342163	
1741940555348	0.09689331	
1741940555349	0.17845154	
1741940555350	0.102386475	
1741940555351	0.040283203	
1741940555352	0.041732788	
1741940555353	-0.0743103	
1741940555354	-0.20942688	
1741940555355	-0.260849	
1741940555356	-0.15769958	
1741940555357	-0.0642395	
1741940555358	-0.10719299	
1741940555359	-0.11390686	
1741940555360	-0.14755249	
1741940555361	-0.16464233	
1741940555362	-0.04699707	
1741940555363	-0.03189087	
1741940555364	-0.092163086	
1741940555365	-0.072631836	
1741940555366	0.045776367	
1741940555367	0.13961792	
1741940555368	0.02494812	
1741940555369	-0.017700195	
1741940555370	0.021743774	
1741940555371	0.045166016	
1741940555372	0.17951965	
1741940555373	0.17601013	
1741940555374	0.14717102	
1741940555375	0.107803345	
1741940555376	0.0022888184	
1741940555377	-0.022125244	
1741940555378	-0.07575989	
1741940555379	0.077819824	
1741940555380	0.16937256	
1741940555381	0.007019043	
1741940555382	0.015945435	
1741940555383	-0.025100708	
1741940555384	-0.07865906	
1741940555385	-0.052261353	
1741940555386	-0.05836487	
1741940555387	0.01083374	
1741940555388	-0.013809204	
1741940555389	-0.058898926	
1741940555390	-0.009231567	
1741940555391	-0.024337769	
1741940555392	-0.051651	
1741940555393	-0.034484863	
1741940555394	-0.016784668	
1741940555395	-0.0090789795	
1741940555396	-0.0035095215	
1741940555397	-0.044631958	
1741940555398	-0.13160706	
1741940555399	-0.09010315	
1741940555400	0.04333496	
1741940555401	0.03768921	
1741940555402	-0.0035858154	
1741940555403	0.02204895	
1741940555404	0.013885498	
1741940555405	0.016708374	
1741940555406	0.023956299	
1741940555407	0.021972656	
1741940555408	0.035629272	
1741940555409	0.03440857	
1741940555410	0.056381226	
1741940555411	0.05958557	
1741940555412	0.024032593	
1741940555413	0.025558472	
1741940555414	0.030822754	
1741940555415	0.0132751465	
1741940555416	-7.6293945E-4	
1741940555417	-0.02029419	
1741940555418	-0.03074646	
1741940555419	-0.012588501	
1741940555420	0.009002686	
1741940555421	7.6293945E-5	
1741940555422	-9.918213E-4	
1741940555423	0.02609253	
1741940555424	0.017623901	
1741940555425	0.0018310547	
1741940555426	0.011138916	
1741940555427	0.011444092	
1741940555428	0.013809204	
1741940555429	-0.028533936	
1741940555430	-0.106658936	
1741940555431	-0.09460449	
1741940555432	-0.039520264	
1741940555433	-0.016937256	
1741940555434	0.011291504	
1741940555435	0.009460449	
1741940555436	-0.012817383	
1741940555437	-0.011444092	
1741940555438	-0.009231567	
1741940555439	-0.009765625	
1741940555440	0.008621216	
1741940555441	0.02456665	
1741940555442	0.007247925	
1741940555443	-0.0036621094	
1741940555444	0.0030517578	
1741940555445	0.009307861	
1741940555446	-0.001373291	
1741940555447	-0.033721924	
1741940555448	-0.027008057	
1741940555449	0.028915405	
1741940555450	0.07385254	
1741940555451	0.1083374	
1741940555452	0.061035156	
1741940555453	-0.11154175	
1741940555454	-0.09162903	
1741940555455	0.08407593	
1741940555456	0.1134491	
1741940555457	0.09208679	
1741940555458	-0.0019836426	
1741940555459	-0.12908936	
