# OpenSignals Text File Format
# {"00:80:E1:26:9F:85":{"sensor":["EMG"],"device name":"00:80:E1:26:9F:85","column":["timestamp","EMG"],"sync interval":2,"time":"15:02:09","comments":"","keywords":"","device connection":"BLE00:80:E1:26:9F:85","channels":[0],"date":"2025-02-11","mode":0,"digital IO":[],"firmware version":259,"device":"musclebanplux","position":0,"sampling rate":1000,"label":["EMG"],"resolution":[16],"special":[{}],"sleeve color":["UNKNOWN"]}}
# EndOfHeader
1739282530170	0.008850098	
1739282530171	0.0046539307	
1739282530172	-3.0517578E-4	
1739282530173	-0.013198853	
1739282530174	-0.018997192	
1739282530175	-0.013809204	
1739282530176	0.009002686	
1739282530177	0.021820068	
1739282530178	0.00831604	
1739282530179	0.0047302246	
1739282530180	0.007019043	
1739282530181	0.014572144	
1739282530182	0.0289917	
1739282530183	0.022125244	
1739282530184	0.005493164	
1739282530185	0.0012207031	
1739282530186	-4.5776367E-4	
1739282530187	0.001373291	
1739282530188	0.0048828125	
1739282530189	-0.004501343	
1739282530190	-0.011444092	
1739282530191	-0.009155273	
1739282530192	-0.017318726	
1739282530193	-0.012969971	
1739282530194	0.01586914	
1739282530195	0.003967285	
1739282530196	-0.028457642	
1739282530197	-0.016479492	
1739282530198	-0.006942749	
1739282530199	-0.0051879883	
1739282530200	0.0037384033	
1739282530201	-0.0016784668	
1739282530202	0.0035095215	
1739282530203	0.00831604	
1739282530204	0.001373291	
1739282530205	0.0012969971	
1739282530206	0.0019836426	
1739282530207	-3.8146973E-4	
1739282530208	-0.0021362305	
1739282530209	0.0030517578	
1739282530210	0.008392334	
1739282530211	0.0049591064	
1739282530212	5.340576E-4	
1739282530213	-0.006942749	
1739282530214	-0.0037384033	
1739282530215	0.022583008	
1739282530216	0.037384033	
1739282530217	0.03929138	
1739282530218	0.046844482	
1739282530219	0.02670288	
1739282530220	-0.03036499	
1739282530221	-0.09590149	
1739282530222	-0.11795044	
1739282530223	-0.060958862	
1739282530224	0.0063323975	
1739282530225	0.008468628	
1739282530226	-0.0090789795	
1739282530227	6.866455E-4	
1739282530228	1.5258789E-4	
1739282530229	0.001449585	
1739282530230	0.033798218	
1739282530231	0.038375854	
1739282530232	0.028152466	
1739282530233	0.037231445	
1739282530234	0.031585693	
1739282530235	0.022964478	
1739282530236	0.016403198	
1739282530237	0.00869751	
1739282530238	0.007171631	
1739282530239	0.0030517578	
1739282530240	0.008850098	
1739282530241	0.016784668	
1739282530242	0.0046539307	
1739282530243	-0.016326904	
1739282530244	-0.031051636	
1739282530245	-0.030441284	
1739282530246	-0.020751953	
1739282530247	-0.01739502	
1739282530248	-0.015411377	
1739282530249	-0.005722046	
1739282530250	0.0017547607	
1739282530251	6.1035156E-4	
1739282530252	0.0025177002	
1739282530253	-9.918213E-4	
1739282530254	-0.014877319	
1739282530255	-0.015945435	
1739282530256	-0.0046539307	
1739282530257	-0.0047302246	
1739282530258	-0.01373291	
1739282530259	-0.0048065186	
1739282530260	0.022506714	
1739282530261	0.035705566	
1739282530262	0.020523071	
1739282530263	0.0077056885	
1739282530264	6.866455E-4	
1739282530265	-0.014038086	
1739282530266	-0.009002686	
1739282530267	0.0012969971	
1739282530268	-0.0029754639	
1739282530269	-0.00579834	
1739282530270	-0.0073242188	
1739282530271	-0.0012969971	
1739282530272	-8.392334E-4	
1739282530273	-0.009307861	
1739282530274	-0.0035858154	
1739282530275	-0.0022125244	
1739282530276	-0.005569458	
1739282530277	0.0061798096	
1739282530278	0.016708374	
1739282530279	0.014343262	
1739282530280	0.006942749	
1739282530281	0.00541687	
1739282530282	0.008239746	
1739282530283	0.010070801	
1739282530284	0.01449585	
1739282530285	0.013961792	
1739282530286	3.0517578E-4	
1739282530287	-0.01411438	
1739282530288	-0.011444092	
1739282530289	-0.005340576	
1739282530290	-0.009689331	
1739282530291	-0.0046539307	
1739282530292	0.00579834	
1739282530293	0.0024414062	
1739282530294	-0.008544922	
1739282530295	-0.013046265	
1739282530296	-0.0062561035	
1739282530297	5.340576E-4	
1739282530298	-2.2888184E-4	
1739282530299	6.866455E-4	
1739282530300	6.1035156E-4	
1739282530301	-0.008468628	
1739282530302	-0.011062622	
1739282530303	-0.0035095215	
1739282530304	0.005722046	
1739282530305	0.008621216	
1739282530306	0.002746582	
1739282530307	0.0030517578	
1739282530308	0.005264282	
1739282530309	0.0018310547	
1739282530310	-0.0025939941	
1739282530311	-0.0031280518	
1739282530312	0.003967285	
1739282530313	0.003967285	
1739282530314	3.0517578E-4	
1739282530315	0.0045776367	
1739282530316	0.0077056885	
1739282530317	0.0047302246	
1739282530318	-7.6293945E-5	
1739282530319	-9.1552734E-4	
1739282530320	-0.005645752	
1739282530321	-0.008163452	
1739282530322	-0.0011444092	
1739282530323	0.0024414062	
1739282530324	0.0073242188	
1739282530325	0.019454956	
1739282530326	0.01991272	
1739282530327	-0.0020599365	
1739282530328	-0.033340454	
1739282530329	-0.027694702	
1739282530330	0.018234253	
1739282530331	0.032958984	
1739282530332	0.026550293	
1739282530333	0.010147095	
1739282530334	-0.037994385	
1739282530335	-0.055999756	
1739282530336	-0.049591064	
1739282530337	-0.049591064	
1739282530338	-0.009841919	
1739282530339	0.023040771	
1739282530340	0.010528564	
1739282530341	0.00289917	
1739282530342	0.004348755	
1739282530343	0.013427734	
1739282530344	0.0315094	
1739282530345	0.028457642	
1739282530346	0.014038086	
1739282530347	0.011749268	
1739282530348	0.019378662	
1739282530349	0.028152466	
1739282530350	0.030059814	
1739282530351	0.014801025	
1739282530352	-0.00541687	
1739282530353	-0.012283325	
1739282530354	-0.011138916	
1739282530355	-0.005569458	
1739282530356	-0.0062561035	
1739282530357	-0.011520386	
1739282530358	-0.013122559	
1739282530359	-0.011291504	
1739282530360	-0.012588501	
1739282530361	-0.01121521	
1739282530362	-0.002670288	
1739282530363	-0.0077819824	
1739282530364	-0.011978149	
1739282530365	-0.007247925	
1739282530366	-0.0063323975	
1739282530367	-0.0015258789	
1739282530368	-6.1035156E-4	
1739282530369	-0.0064086914	
1739282530370	-0.0019836426	
1739282530371	0.007171631	
1739282530372	0.013885498	
1739282530373	0.014343262	
1739282530374	-0.0030517578	
1739282530375	-0.0049591064	
1739282530376	2.2888184E-4	
1739282530377	-0.011672974	
1739282530378	-0.0104522705	
1739282530379	-0.006713867	
1739282530380	0.0010681152	
1739282530381	0.011978149	
1739282530382	0.004272461	
1739282530383	0.0030517578	
1739282530384	0.012130737	
1739282530385	0.010681152	
1739282530386	0.004196167	
1739282530387	0.0048828125	
1739282530388	0.003967285	
1739282530389	0.005264282	
1739282530390	0.010910034	
1739282530391	0.005874634	
1739282530392	0.005264282	
1739282530393	0.0046539307	
1739282530394	-0.0031280518	
1739282530395	-0.010147095	
1739282530396	-0.012817383	
1739282530397	-0.0035095215	
1739282530398	-9.918213E-4	
1739282530399	0.004119873	
1739282530400	0.013580322	
1739282530401	-0.004043579	
1739282530402	-0.01625061	
1739282530403	0.0062561035	
1739282530404	0.005340576	
1739282530405	-0.026245117	
1739282530406	-0.026931763	
1739282530407	-0.0062561035	
1739282530408	-0.002670288	
1739282530409	-0.0038146973	
1739282530410	0.00289917	
1739282530411	0.013961792	
1739282530412	0.01838684	
1739282530413	0.0033569336	
1739282530414	-0.01373291	
1739282530415	-0.010604858	
1739282530416	0.003967285	
1739282530417	0.009002686	
1739282530418	0.008392334	
1739282530419	0.019607544	
1739282530420	0.027313232	
1739282530421	0.008850098	
1739282530422	-0.008163452	
1739282530423	-0.0038909912	
1739282530424	-0.00579834	
1739282530425	-0.008087158	
1739282530426	-0.005645752	
1739282530427	-0.00579834	
1739282530428	-0.0032806396	
1739282530429	-0.004272461	
1739282530430	-0.007171631	
1739282530431	-0.008392334	
1739282530432	-0.004348755	
1739282530433	0.0032806396	
1739282530434	0.00541687	
1739282530435	0.006942749	
1739282530436	0.006866455	
1739282530437	5.340576E-4	
1739282530438	-0.0059509277	
1739282530439	-0.02128601	
1739282530440	-0.02319336	
1739282530441	-0.0029754639	
1739282530442	-0.0032043457	
1739282530443	9.1552734E-4	
1739282530444	0.017929077	
1739282530445	0.018081665	
1739282530446	0.015411377	
1739282530447	0.016937256	
1739282530448	0.02708435	
1739282530449	0.035095215	
1739282530450	0.033416748	
1739282530451	0.022354126	
1739282530452	-0.02746582	
1739282530453	-0.09567261	
1739282530454	-0.11482239	
1739282530455	-0.060195923	
1739282530456	0.007247925	
1739282530457	0.02243042	
1739282530458	0.019607544	
1739282530459	0.025939941	
1739282530460	0.022964478	
1739282530461	0.021438599	
1739282530462	0.021896362	
1739282530463	0.02532959	
1739282530464	0.03211975	
1739282530465	0.027694702	
1739282530466	0.017166138	
1739282530467	0.0051879883	
1739282530468	-0.0022125244	
1739282530469	-0.007171631	
1739282530470	-0.011444092	
1739282530471	-0.007858276	
1739282530472	-0.009307861	
1739282530473	-0.017089844	
1739282530474	-0.01373291	
1739282530475	-0.004272461	
1739282530476	9.1552734E-4	
1739282530477	0.0047302246	
1739282530478	0.0062561035	
1739282530479	0.0063323975	
1739282530480	-0.0035095215	
1739282530481	-0.01121521	
1739282530482	-0.016174316	
1739282530483	-0.029220581	
1739282530484	-0.02029419	
1739282530485	-0.008087158	
1739282530486	-0.009765625	
1739282530487	2.2888184E-4	
1739282530488	0.007858276	
1739282530489	0.010147095	
1739282530490	0.010681152	
1739282530491	0.001373291	
1739282530492	-0.0036621094	
1739282530493	0.004043579	
1739282530494	0.010223389	
1739282530495	0.009994507	
1739282530496	0.006713867	
1739282530497	0.0036621094	
1739282530498	0.009460449	
1739282530499	0.010528564	
1739282530500	0.0025177002	
1739282530501	-0.0035095215	
1739282530502	-0.0025939941	
1739282530503	-6.866455E-4	
1739282530504	-0.0025939941	
1739282530505	0.005264282	
1739282530506	0.0033569336	
1739282530507	-0.0051116943	
1739282530508	4.5776367E-4	
1739282530509	0.005264282	
1739282530510	0.002670288	
1739282530511	-0.0032806396	
1739282530512	-0.0038909912	
1739282530513	-0.0029754639	
1739282530514	-0.0046539307	
1739282530515	-0.005264282	
1739282530516	9.1552734E-4	
1739282530517	0.0025939941	
1739282530518	-0.0024414062	
1739282530519	-6.1035156E-4	
1739282530520	-0.004196167	
1739282530521	-0.008163452	
1739282530522	-0.0032043457	
1739282530523	9.918213E-4	
1739282530524	1.5258789E-4	
1739282530525	-0.0031280518	
1739282530526	-0.0010681152	
1739282530527	-0.004043579	
1739282530528	-0.008468628	
1739282530529	-9.1552734E-4	
1739282530530	0.0074005127	
1739282530531	0.008544922	
1739282530532	0.0063323975	
1739282530533	-0.0012969971	
1739282530534	-0.00793457	
1739282530535	0.0010681152	
1739282530536	0.006713867	
1739282530537	6.1035156E-4	
1739282530538	0.0018310547	
1739282530539	-0.0018310547	
1739282530540	-0.007095337	
1739282530541	0.0035095215	
1739282530542	0.011978149	
1739282530543	0.014572144	
1739282530544	0.026550293	
1739282530545	0.028533936	
1739282530546	0.0035095215	
1739282530547	-0.020599365	
1739282530548	-0.018157959	
1739282530549	-0.004425049	
1739282530550	-0.004043579	
1739282530551	-0.0017547607	
1739282530552	1.5258789E-4	
1739282530553	-0.014801025	
1739282530554	-0.016555786	
1739282530555	-0.0016021729	
1739282530556	0.020065308	
1739282530557	0.014801025	
1739282530558	-0.010375977	
1739282530559	-8.392334E-4	
1739282530560	-0.010604858	
1739282530561	-0.035705566	
1739282530562	-0.034179688	
1739282530563	-0.03807068	
1739282530564	-0.015182495	
1739282530565	0.026321411	
1739282530566	0.03578186	
1739282530567	0.036315918	
1739282530568	0.026321411	
1739282530569	0.008163452	
1739282530570	-0.009994507	
1739282530571	-0.01991272	
1739282530572	-0.0024414062	
1739282530573	7.6293945E-4	
1739282530574	-0.0029754639	
1739282530575	0.0032806396	
1739282530576	0.00289917	
1739282530577	0.011062622	
1739282530578	0.013427734	
1739282530579	0.009689331	
1739282530580	0.006790161	
1739282530581	0.0032043457	
1739282530582	0.0034332275	
1739282530583	0.0032806396	
1739282530584	0.0038909912	
1739282530585	7.6293945E-4	
1739282530586	-6.866455E-4	
1739282530587	0.004272461	
1739282530588	0.0025939941	
1739282530589	-0.011138916	
1739282530590	-0.017089844	
1739282530591	-0.011749268	
1739282530592	-0.004348755	
1739282530593	0.0016021729	
1739282530594	-0.007858276	
1739282530595	-0.009994507	
1739282530596	-0.004501343	
1739282530597	-0.01335144	
1739282530598	-0.009918213	
1739282530599	0.0	
1739282530600	0.0064849854	
1739282530601	0.006713867	
1739282530602	-0.002670288	
1739282530603	-7.6293945E-5	
1739282530604	0.0016021729	
1739282530605	7.6293945E-4	
1739282530606	0.00831604	
1739282530607	0.012283325	
1739282530608	0.020370483	
1739282530609	0.018005371	
1739282530610	0.006790161	
1739282530611	0.008850098	
1739282530612	-0.011444092	
1739282530613	-0.043792725	
1739282530614	-0.02822876	
1739282530615	0.0010681152	
1739282530616	-0.0019073486	
1739282530617	-0.0038909912	
1739282530618	0.0011444092	
1739282530619	0.0017547607	
1739282530620	0.007171631	
1739282530621	0.011749268	
1739282530622	0.0074768066	
1739282530623	0.002822876	
1739282530624	0.0051879883	
1739282530625	0.003967285	
1739282530626	0.004196167	
1739282530627	0.009231567	
1739282530628	0.0090789795	
1739282530629	0.009231567	
1739282530630	0.00579834	
1739282530631	-0.0038146973	
1739282530632	4.5776367E-4	
1739282530633	0.019454956	
1739282530634	0.027999878	
1739282530635	0.02281189	
1739282530636	0.007095337	
1739282530637	-0.016784668	
1739282530638	-0.04798889	
1739282530639	-0.09140015	
1739282530640	-0.09567261	
1739282530641	-0.03036499	
1739282530642	0.0289917	
1739282530643	0.03211975	
1739282530644	0.026931763	
1739282530645	0.01777649	
1739282530646	0.0045776367	
1739282530647	0.031814575	
1739282530648	0.04600525	
1739282530649	0.022735596	
1739282530650	0.009231567	
1739282530651	-0.0051116943	
1739282530652	-0.005874634	
1739282530653	0.0022125244	
1739282530654	-0.0051116943	
1739282530655	-0.0061035156	
1739282530656	-0.0034332275	
1739282530657	8.392334E-4	
1739282530658	0.0048828125	
1739282530659	-0.001373291	
1739282530660	-0.012817383	
1739282530661	-0.01838684	
1739282530662	-0.02418518	
1739282530663	-0.018920898	
1739282530664	0.0016021729	
1739282530665	6.1035156E-4	
1739282530666	0.014419556	
1739282530667	0.03387451	
1739282530668	0.0034332275	
1739282530669	-0.009994507	
1739282530670	0.0024414062	
1739282530671	4.5776367E-4	
1739282530672	0.005569458	
1739282530673	0.0030517578	
1739282530674	0.0032043457	
1739282530675	0.004425049	
1739282530676	-0.011138916	
1739282530677	4.5776367E-4	
1739282530678	0.007247925	
1739282530679	-0.004119873	
1739282530680	0.004425049	
1739282530681	-0.008621216	
1739282530682	-0.03463745	
1739282530683	-0.04295349	
1739282530684	-0.035476685	
1739282530685	0.0012969971	
1739282530686	0.021820068	
1739282530687	0.01373291	
1739282530688	0.017089844	
1739282530689	0.015563965	
1739282530690	0.01411438	
1739282530691	0.016403198	
1739282530692	0.008087158	
1739282530693	0.013046265	
1739282530694	0.01876831	
1739282530695	0.014572144	
1739282530696	0.0064086914	
1739282530697	-0.0049591064	
1739282530698	-0.0015258789	
1739282530699	-0.005722046	
1739282530700	-0.012283325	
1739282530701	-0.0061798096	
1739282530702	-0.0090789795	
1739282530703	-0.006790161	
1739282530704	-0.0035095215	
1739282530705	-0.0037384033	
1739282530706	5.340576E-4	
1739282530707	-3.0517578E-4	
1739282530708	0.0	
1739282530709	0.0	
1739282530710	-0.004043579	
1739282530711	-0.005645752	
1739282530712	-0.0038146973	
1739282530713	-0.0037384033	
1739282530714	-0.0033569336	
1739282530715	0.0023651123	
1739282530716	0.0038909912	
1739282530717	0.002822876	
1739282530718	1.5258789E-4	
1739282530719	-0.0038146973	
1739282530720	0.0011444092	
1739282530721	0.002670288	
1739282530722	-0.0038909912	
1739282530723	0.0015258789	
1739282530724	0.010604858	
1739282530725	0.0023651123	
1739282530726	-0.004119873	
1739282530727	0.0021362305	
1739282530728	0.0031280518	
1739282530729	-0.00793457	
1739282530730	-0.026626587	
1739282530731	-0.027923584	
1739282530732	0.02128601	
1739282530733	0.07331848	
1739282530734	0.05279541	
1739282530735	0.009994507	
1739282530736	-0.0030517578	
1739282530737	-0.023269653	
1739282530738	-0.06744385	
1739282530739	-0.091781616	
1739282530740	-0.055923462	
1739282530741	5.340576E-4	
1739282530742	0.023803711	
1739282530743	0.017547607	
1739282530744	0.018081665	
1739282530745	0.02067566	
1739282530746	0.020599365	
1739282530747	0.03074646	
1739282530748	0.029754639	
1739282530749	0.015411377	
1739282530750	0.009536743	
1739282530751	0.0045776367	
1739282530752	-0.0031280518	
1739282530753	9.918213E-4	
1739282530754	-0.0029754639	
1739282530755	-0.012969971	
1739282530756	-0.0050354004	
1739282530757	0.0032043457	
1739282530758	0.0016021729	
1739282530759	9.918213E-4	
1739282530760	-0.0032806396	
1739282530761	-0.008926392	
1739282530762	-0.009460449	
1739282530763	-0.008544922	
1739282530764	0.0023651123	
1739282530765	0.0038146973	
1739282530766	-0.008239746	
1739282530767	-0.012512207	
1739282530768	-0.012283325	
1739282530769	0.0019836426	
1739282530770	0.020904541	
1739282530771	0.024261475	
1739282530772	0.012741089	
1739282530773	-0.0118255615	
1739282530774	-0.033798218	
1739282530775	-0.02746582	
1739282530776	0.0030517578	
1739282530777	0.0033569336	
1739282530778	-0.006942749	
1739282530779	0.0073242188	
1739282530780	0.001373291	
1739282530781	-0.0066375732	
1739282530782	-3.0517578E-4	
1739282530783	0.009460449	
1739282530784	0.0132751465	
1739282530785	0.0064086914	
1739282530786	0.021209717	
1739282530787	0.02784729	
1739282530788	0.010910034	
1739282530789	0.0035095215	
1739282530790	-0.010757446	
1739282530791	-0.040512085	
1739282530792	-0.056762695	
1739282530793	-0.03250122	
1739282530794	0.010147095	
1739282530795	0.018081665	
1739282530796	0.009841919	
1739282530797	0.009231567	
1739282530798	0.0076293945	
1739282530799	0.016479492	
1739282530800	0.017166138	
1739282530801	0.013885498	
1739282530802	0.0066375732	
1739282530803	-0.0023651123	
1739282530804	0.009307861	
1739282530805	0.008621216	
1739282530806	-0.0029754639	
1739282530807	-0.0034332275	
1739282530808	-0.0035095215	
1739282530809	-0.012207031	
1739282530810	-0.016403198	
1739282530811	-0.008621216	
1739282530812	-0.0047302246	
1739282530813	0.0018310547	
1739282530814	0.00289917	
1739282530815	4.5776367E-4	
1739282530816	0.002822876	
1739282530817	-0.0022125244	
1739282530818	-8.392334E-4	
1739282530819	-5.340576E-4	
1739282530820	-0.0049591064	
1739282530821	-0.001373291	
1739282530822	-0.0030517578	
1739282530823	0.0019073486	
1739282530824	0.008468628	
1739282530825	-0.0016784668	
1739282530826	2.2888184E-4	
1739282530827	0.007858276	
1739282530828	0.0034332275	
1739282530829	0.0020599365	
1739282530830	-0.0034332275	
1739282530831	-0.0064086914	
1739282530832	-6.1035156E-4	
1739282530833	0.0015258789	
1739282530834	-7.6293945E-5	
1739282530835	-9.1552734E-4	
1739282530836	-0.0012207031	
1739282530837	-0.012969971	
1739282530838	-0.019454956	
1739282530839	-0.012741089	
1739282530840	0.00579834	
1739282530841	0.025177002	
1739282530842	0.02204895	
1739282530843	0.0365448	
1739282530844	0.050430298	
1739282530845	0.020370483	
1739282530846	-0.017471313	
1739282530847	-0.051574707	
1739282530848	-0.022964478	
1739282530849	0.028915405	
1739282530850	-0.0029754639	
1739282530851	-0.044784546	
1739282530852	-0.072402954	
1739282530853	-0.08010864	
1739282530854	-0.026016235	
1739282530855	0.01586914	
1739282530856	0.02456665	
1739282530857	0.028915405	
1739282530858	0.027542114	
1739282530859	0.02494812	
1739282530860	0.026168823	
1739282530861	0.025939941	
1739282530862	0.02029419	
1739282530863	0.018615723	
1739282530864	0.014877319	
1739282530865	0.008544922	
1739282530866	0.0073242188	
1739282530867	0.0073242188	
1739282530868	0.0025939941	
1739282530869	-0.007247925	
1739282530870	-0.0065612793	
1739282530871	-0.0033569336	
1739282530872	-0.0090789795	
1739282530873	-0.007095337	
1739282530874	-0.006866455	
1739282530875	-0.009536743	
1739282530876	-3.0517578E-4	
1739282530877	0.002822876	
1739282530878	-0.0060272217	
1739282530879	-0.0046539307	
1739282530880	4.5776367E-4	
1739282530881	-0.018234253	
1739282530882	-0.029907227	
1739282530883	-0.015106201	
1739282530884	-0.0036621094	
1739282530885	-0.0065612793	
1739282530886	-0.012893677	
1739282530887	-0.0047302246	
1739282530888	0.007171631	
1739282530889	0.01586914	
1739282530890	0.02243042	
1739282530891	0.021820068	
1739282530892	0.018310547	
1739282530893	0.009460449	
1739282530894	-0.0048065186	
1739282530895	-0.02357483	
1739282530896	-0.01663208	
1739282530897	-0.0020599365	
1739282530898	-0.011749268	
1739282530899	-0.0022125244	
1739282530900	0.0060272217	
1739282530901	-7.6293945E-5	
1739282530902	0.008850098	
1739282530903	0.008163452	
1739282530904	0.004501343	
1739282530905	0.0074768066	
1739282530906	0.003967285	
1739282530907	0.0046539307	
1739282530908	0.01083374	
1739282530909	0.00579834	
1739282530910	-0.0025177002	
1739282530911	-7.6293945E-5	
1739282530912	-0.001449585	
1739282530913	-4.5776367E-4	
1739282530914	0.0019836426	
1739282530915	-0.004043579	
1739282530916	-0.0051116943	
1739282530917	-0.002670288	
1739282530918	0.0022125244	
1739282530919	0.0049591064	
1739282530920	-7.6293945E-5	
1739282530921	0.0012207031	
1739282530922	3.0517578E-4	
1739282530923	-0.010604858	
1739282530924	-0.017471313	
1739282530925	-0.0104522705	
1739282530926	-0.002822876	
1739282530927	-0.0047302246	
1739282530928	0.0016021729	
1739282530929	0.0051879883	
1739282530930	-2.2888184E-4	
1739282530931	0.007171631	
1739282530932	0.017929077	
1739282530933	0.0048828125	
1739282530934	-0.013046265	
1739282530935	-0.0025939941	
1739282530936	0.0022888184	
1739282530937	-0.0011444092	
1739282530938	0.0118255615	
1739282530939	0.016174316	
1739282530940	3.8146973E-4	
1739282530941	-0.021438599	
1739282530942	-0.01701355	
1739282530943	-0.0051879883	
1739282530944	-0.0076293945	
1739282530945	4.5776367E-4	
1739282530946	0.0066375732	
1739282530947	0.0061035156	
1739282530948	0.0061035156	
1739282530949	0.0059509277	
1739282530950	0.005340576	
1739282530951	0.0035858154	
1739282530952	0.0051116943	
1739282530953	0.005645752	
1739282530954	0.0016784668	
1739282530955	-0.005569458	
1739282530956	-0.004501343	
1739282530957	9.1552734E-4	
1739282530958	-0.00541687	
1739282530959	-0.009002686	
1739282530960	-0.003967285	
1739282530961	-0.002822876	
1739282530962	-0.004119873	
1739282530963	-0.0036621094	
1739282530964	0.0021362305	
1739282530965	0.010757446	
1739282530966	0.014190674	
1739282530967	0.013961792	
1739282530968	0.013961792	
1739282530969	0.009994507	
1739282530970	2.2888184E-4	
1739282530971	0.0	
1739282530972	0.0051116943	
1739282530973	-0.015258789	
1739282530974	-0.03189087	
1739282530975	-0.015335083	
1739282530976	-0.0030517578	
1739282530977	-0.009994507	
1739282530978	-0.009307861	
1739282530979	-0.008773804	
1739282530980	-0.052337646	
1739282530981	-0.06774902	
1739282530982	-0.0074005127	
1739282530983	0.029067993	
1739282530984	0.033798218	
1739282530985	0.036315918	
1739282530986	0.029525757	
1739282530987	0.035705566	
1739282530988	0.032424927	
1739282530989	0.023803711	
1739282530990	0.021209717	
1739282530991	0.010299683	
1739282530992	0.008239746	
1739282530993	-0.0016784668	
1739282530994	-0.006790161	
1739282530995	9.918213E-4	
1739282530996	-0.008621216	
1739282530997	-0.0132751465	
1739282530998	-0.012054443	
1739282530999	-0.010604858	
1739282531000	-0.0018310547	
1739282531001	-0.004119873	
1739282531002	-0.013580322	
1739282531003	-0.0119018555	
1739282531004	-0.01083374	
1739282531005	-0.020217896	
1739282531006	-0.014266968	
1739282531007	0.0016784668	
1739282531008	-0.0012207031	
1739282531009	-0.0034332275	
1739282531010	0.0037384033	
1739282531011	0.0025177002	
1739282531012	6.866455E-4	
1739282531013	0.0022888184	
1739282531014	6.1035156E-4	
1739282531015	-0.0011444092	
1739282531016	-0.0018310547	
1739282531017	0.004501343	
1739282531018	0.009231567	
1739282531019	0.0	
1739282531020	-0.0010681152	
1739282531021	0.0075531006	
1739282531022	0.0062561035	
1739282531023	0.002670288	
1739282531024	0.0031280518	
1739282531025	0.007247925	
1739282531026	0.011062622	
1739282531027	0.0048065186	
1739282531028	-0.0059509277	
1739282531029	-0.008468628	
1739282531030	-0.006942749	
1739282531031	-0.0032043457	
1739282531032	0.0023651123	
1739282531033	0.0023651123	
1739282531034	-0.0016021729	
1739282531035	-0.0031280518	
1739282531036	0.0032806396	
1739282531037	0.0021362305	
1739282531038	-0.00541687	
1739282531039	-4.5776367E-4	
1739282531040	-0.0019073486	
1739282531041	-0.0048828125	
1739282531042	-1.5258789E-4	
1739282531043	-0.0020599365	
1739282531044	-6.866455E-4	
1739282531045	6.1035156E-4	
1739282531046	9.918213E-4	
1739282531047	0.00541687	
1739282531048	7.6293945E-4	
1739282531049	-0.0037384033	
1739282531050	-0.0018310547	
1739282531051	0.0025177002	
1739282531052	0.0104522705	
1739282531053	0.0036621094	
1739282531054	-0.0036621094	
1739282531055	0.00541687	
1739282531056	0.015487671	
1739282531057	0.0064849854	
1739282531058	-0.012207031	
1739282531059	-0.0031280518	
1739282531060	0.003967285	
1739282531061	-0.0025939941	
1739282531062	-0.0059509277	
1739282531063	-0.017242432	
1739282531064	-0.008239746	
1739282531065	2.2888184E-4	
1739282531066	-0.0064849854	
1739282531067	-0.0018310547	
1739282531068	-0.005645752	
1739282531069	-0.005493164	
1739282531070	-0.004348755	
1739282531071	-0.009307861	
1739282531072	0.02456665	
1739282531073	0.05088806	
1739282531074	0.030670166	
1739282531075	0.013885498	
1739282531076	0.00869751	
1739282531077	-0.007095337	
1739282531078	-0.024871826	
1739282531079	-0.029373169	
1739282531080	-0.03768921	
1739282531081	-0.03288269	
1739282531082	-0.014953613	
1739282531083	-0.011444092	
1739282531084	-0.0062561035	
1739282531085	-0.0047302246	
1739282531086	9.918213E-4	
1739282531087	0.01121521	
1739282531088	0.01335144	
1739282531089	0.014724731	
1739282531090	0.013122559	
1739282531091	0.019607544	
1739282531092	0.023117065	
1739282531093	0.015029907	
1739282531094	0.009689331	
1739282531095	0.0033569336	
1739282531096	0.0037384033	
1739282531097	0.005569458	
1739282531098	-0.0059509277	
1739282531099	-0.009994507	
1739282531100	-0.005264282	
1739282531101	-0.0025939941	
1739282531102	0.0018310547	
1739282531103	-0.0033569336	
1739282531104	-0.005493164	
1739282531105	0.0035858154	
1739282531106	0.0020599365	
1739282531107	-0.0046539307	
1739282531108	-0.0012969971	
1739282531109	-0.001373291	
1739282531110	-0.008773804	
1739282531111	-0.0037384033	
1739282531112	-0.004348755	
1739282531113	-0.008773804	
1739282531114	-0.0023651123	
1739282531115	-0.0033569336	
1739282531116	-0.004425049	
1739282531117	-0.0011444092	
1739282531118	0.0029754639	
1739282531119	5.340576E-4	
1739282531120	-0.005722046	
1739282531121	0.0020599365	
1739282531122	0.009994507	
1739282531123	0.009384155	
1739282531124	0.020065308	
1739282531125	0.028381348	
1739282531126	0.011367798	
1739282531127	-0.011978149	
1739282531128	-0.014038086	
1739282531129	0.0048828125	
1739282531130	-0.012893677	
1739282531131	-0.0705719	
1739282531132	-0.0869751	
1739282531133	-0.041046143	
1739282531134	0.015258789	
1739282531135	0.03173828	
1739282531136	0.029296875	
1739282531137	0.031585693	
1739282531138	0.030822754	
1739282531139	0.027618408	
1739282531140	0.021896362	
1739282531141	0.012664795	
1739282531142	0.0076293945	
1739282531143	0.008010864	
1739282531144	0.006713867	
1739282531145	0.013122559	
1739282531146	0.011978149	
1739282531147	0.0049591064	
1739282531148	0.017623901	
1739282531149	0.0119018555	
1739282531150	-0.015640259	
1739282531151	-0.018234253	
1739282531152	-0.0034332275	
1739282531153	-0.0063323975	
1739282531154	-0.017852783	
1739282531155	-0.01953125	
1739282531156	-0.023117065	
1739282531157	-0.0289917	
1739282531158	-0.042648315	
1739282531159	-0.03715515	
1739282531160	0.011520386	
1739282531161	0.033798218	
1739282531162	0.013427734	
1739282531163	0.004119873	
1739282531164	0.0016021729	
1739282531165	0.001449585	
1739282531166	0.0035858154	
1739282531167	8.392334E-4	
1739282531168	0.0037384033	
1739282531169	0.005340576	
1739282531170	0.005493164	
1739282531171	0.006790161	
1739282531172	0.004119873	
1739282531173	0.0024414062	
1739282531174	0.009384155	
1739282531175	0.013046265	
1739282531176	0.0037384033	
1739282531177	0.001449585	
1739282531178	0.0035858154	
1739282531179	-0.0022125244	
1739282531180	6.1035156E-4	
1739282531181	-3.0517578E-4	
1739282531182	-0.011444092	
1739282531183	-0.008850098	
1739282531184	-0.0021362305	
1739282531185	6.1035156E-4	
1739282531186	-0.0032806396	
1739282531187	-0.00869751	
1739282531188	-0.0051116943	
1739282531189	-4.5776367E-4	
1739282531190	0.0017547607	
1739282531191	0.0023651123	
1739282531192	0.0012207031	
1739282531193	-9.1552734E-4	
1739282531194	0.0060272217	
1739282531195	0.009231567	
1739282531196	-0.001449585	
1739282531197	-0.0025177002	
1739282531198	7.6293945E-5	
1739282531199	-0.0010681152	
1739282531200	-0.0045776367	
1739282531201	-0.008544922	
1739282531202	2.2888184E-4	
1739282531203	-0.0046539307	
1739282531204	-0.006790161	
1739282531205	0.014038086	
1739282531206	0.007171631	
1739282531207	-0.0016021729	
1739282531208	0.008850098	
1739282531209	0.008773804	
1739282531210	0.00579834	
1739282531211	-0.005340576	
1739282531212	-0.010604858	
1739282531213	-0.0046539307	
1739282531214	-0.0035858154	
1739282531215	-4.5776367E-4	
1739282531216	-0.0016021729	
1739282531217	-4.5776367E-4	
1739282531218	0.0031280518	
1739282531219	0.0011444092	
1739282531220	0.0030517578	
1739282531221	0.0022888184	
1739282531222	3.0517578E-4	
1739282531223	6.866455E-4	
1739282531224	-6.1035156E-4	
1739282531225	-0.0016021729	
1739282531226	-0.0037384033	
1739282531227	-0.00289917	
1739282531228	-0.0011444092	
1739282531229	0.0012207031	
1739282531230	0.0034332275	
1739282531231	-5.340576E-4	
1739282531232	0.0021362305	
1739282531233	0.005264282	
1739282531234	0.0010681152	
1739282531235	0.0032043457	
1739282531236	0.005340576	
1739282531237	-0.0012969971	
1739282531238	-0.0074768066	
1739282531239	-0.007171631	
1739282531240	-0.005722046	
1739282531241	-0.004196167	
1739282531242	-0.001373291	
1739282531243	-5.340576E-4	
1739282531244	-0.001449585	
1739282531245	-0.0031280518	
1739282531246	-2.2888184E-4	
1739282531247	0.004425049	
1739282531248	0.006942749	
1739282531249	0.018997192	
1739282531250	0.036697388	
1739282531251	0.032043457	
1739282531252	-0.0060272217	
1739282531253	-0.026550293	
1739282531254	-9.918213E-4	
1739282531255	0.0066375732	
1739282531256	-0.019302368	
1739282531257	-0.044555664	
1739282531258	-0.07446289	
1739282531259	-0.0705719	
1739282531260	-0.016326904	
1739282531261	0.01625061	
1739282531262	0.021896362	
1739282531263	0.030517578	
1739282531264	0.03173828	
1739282531265	0.029067993	
1739282531266	0.026473999	
1739282531267	0.022506714	
1739282531268	0.018920898	
1739282531269	0.015945435	
1739282531270	0.014266968	
1739282531271	0.0132751465	
1739282531272	0.0090789795	
1739282531273	0.005340576	
1739282531274	-0.0062561035	
1739282531275	-0.019226074	
1739282531276	-0.010375977	
1739282531277	-0.0077056885	
1739282531278	-0.0104522705	
1739282531279	-0.006790161	
1739282531280	-0.010070801	
1739282531281	-0.006866455	
1739282531282	-0.004501343	
1739282531283	-0.0038909912	
1739282531284	-0.002670288	
1739282531285	-0.0031280518	
1739282531286	3.8146973E-4	
1739282531287	-0.006866455	
1739282531288	-0.011978149	
1739282531289	-0.004196167	
1739282531290	-0.001373291	
1739282531291	0.0049591064	
1739282531292	0.011138916	
1739282531293	8.392334E-4	
1739282531294	-0.0030517578	
1739282531295	0.006942749	
1739282531296	0.0035095215	
1739282531297	-0.0034332275	
1739282531298	0.00289917	
1739282531299	0.015182495	
1739282531300	0.02319336	
1739282531301	0.01914978	
1739282531302	-0.0010681152	
1739282531303	-0.029067993	
1739282531304	-0.04776001	
1739282531305	-0.066604614	
1739282531306	-0.046691895	
1739282531307	0.02532959	
1739282531308	0.04425049	
1739282531309	0.010375977	
1739282531310	0.0051879883	
1739282531311	0.018081665	
1739282531312	0.02204895	
1739282531313	0.015640259	
1739282531314	0.012664795	
1739282531315	0.009918213	
1739282531316	0.00579834	
1739282531317	0.006942749	
1739282531318	0.0035858154	
1739282531319	0.0024414062	
1739282531320	0.0025177002	
1739282531321	8.392334E-4	
1739282531322	0.0025177002	
1739282531323	1.5258789E-4	
1739282531324	-0.002822876	
1739282531325	-0.005645752	
1739282531326	-0.0061798096	
1739282531327	-3.8146973E-4	
1739282531328	-0.008926392	
1739282531329	-0.017700195	
1739282531330	-0.01335144	
1739282531331	-0.015411377	
1739282531332	-0.014801025	
1739282531333	-0.0050354004	
1739282531334	0.0051116943	
1739282531335	0.008468628	
1739282531336	0.009384155	
1739282531337	0.01991272	
1739282531338	0.026626587	
1739282531339	0.00793457	
1739282531340	-0.014724731	
1739282531341	-0.026855469	
1739282531342	-0.033950806	
1739282531343	-0.018692017	
1739282531344	-2.2888184E-4	
1739282531345	3.0517578E-4	
1739282531346	9.918213E-4	
1739282531347	0.008010864	
1739282531348	0.016784668	
1739282531349	0.021362305	
1739282531350	0.011062622	
1739282531351	0.0024414062	
1739282531352	0.001449585	
1739282531353	-0.0025177002	
1739282531354	6.1035156E-4	
1739282531355	0.005493164	
1739282531356	0.008163452	
1739282531357	0.0012207031	
1739282531358	-0.0075531006	
1739282531359	-9.918213E-4	
1739282531360	0.0012969971	
1739282531361	-0.0010681152	
1739282531362	-5.340576E-4	
1739282531363	0.0011444092	
1739282531364	0.002746582	
1739282531365	-0.0032806396	
1739282531366	-0.015945435	
1739282531367	-0.015563965	
1739282531368	0.0019073486	
1739282531369	0.010681152	
1739282531370	0.015945435	
1739282531371	0.03326416	
1739282531372	0.054855347	
1739282531373	0.04371643	
1739282531374	-0.014266968	
1739282531375	-0.051345825	
1739282531376	-0.05569458	
1739282531377	-0.0819397	
1739282531378	-0.08918762	
1739282531379	-0.03730774	
1739282531380	0.008239746	
1739282531381	0.03036499	
1739282531382	0.03929138	
1739282531383	0.040130615	
1739282531384	0.04119873	
1739282531385	0.028533936	
1739282531386	0.011444092	
1739282531387	0.0076293945	
1739282531388	0.00579834	
1739282531389	-0.0035858154	
1739282531390	0.004348755	
1739282531391	0.023117065	
1739282531392	0.016784668	
1739282531393	0.004196167	
1739282531394	-6.866455E-4	
1739282531395	-0.0075531006	
1739282531396	-0.0077056885	
1739282531397	-0.0019836426	
1739282531398	4.5776367E-4	
1739282531399	-0.004119873	
1739282531400	-0.018615723	
1739282531401	-0.02822876	
1739282531402	-0.009460449	
1739282531403	0.007858276	
1739282531404	-0.0036621094	
1739282531405	-0.004196167	
1739282531406	3.8146973E-4	
1739282531407	-0.00579834	
1739282531408	-8.392334E-4	
1739282531409	-0.002670288	
1739282531410	-0.005493164	
1739282531411	0.0031280518	
1739282531412	0.0025939941	
1739282531413	-8.392334E-4	
1739282531414	0.002746582	
1739282531415	0.0031280518	
1739282531416	-0.0022125244	
1739282531417	-0.0032043457	
1739282531418	-0.0012207031	
1739282531419	-3.0517578E-4	
1739282531420	9.1552734E-4	
1739282531421	0.0023651123	
1739282531422	0.0035858154	
1739282531423	0.0046539307	
1739282531424	0.0075531006	
1739282531425	0.005722046	
1739282531426	-0.0073242188	
1739282531427	-0.01914978	
1739282531428	-0.009231567	
1739282531429	0.017242432	
1739282531430	0.016784668	
1739282531431	-0.010757446	
1739282531432	-0.02166748	
1739282531433	-0.01586914	
1739282531434	0.01121521	
1739282531435	0.029907227	
1739282531436	0.014038086	
1739282531437	0.0048828125	
1739282531438	0.0046539307	
1739282531439	0.0031280518	
1739282531440	0.0033569336	
1739282531441	0.012741089	
1739282531442	0.011978149	
1739282531443	-0.01663208	
1739282531444	-0.01083374	
1739282531445	0.0035858154	
1739282531446	-0.019760132	
1739282531447	-0.013198853	
1739282531448	0.0049591064	
1739282531449	-0.004348755	
1739282531450	-0.0104522705	
1739282531451	-0.0063323975	
1739282531452	-0.0011444092	
1739282531453	0.0025939941	
1739282531454	0.0075531006	
1739282531455	0.0049591064	
1739282531456	-0.0035858154	
1739282531457	-0.0038909912	
1739282531458	-6.866455E-4	
1739282531459	-8.392334E-4	
1739282531460	5.340576E-4	
1739282531461	0.0034332275	
1739282531462	0.0012207031	
1739282531463	0.0023651123	
1739282531464	0.003967285	
1739282531465	-0.001449585	
1739282531466	-3.8146973E-4	
1739282531467	4.5776367E-4	
1739282531468	7.6293945E-4	
1739282531469	0.0047302246	
1739282531470	0.004501343	
1739282531471	0.00579834	
1739282531472	0.0032806396	
1739282531473	-0.0030517578	
1739282531474	-0.0022888184	
1739282531475	-0.0010681152	
1739282531476	-0.004501343	
1739282531477	-0.004119873	
1739282531478	4.5776367E-4	
1739282531479	0.002746582	
1739282531480	0.0029754639	
1739282531481	0.0016021729	
1739282531482	0.006942749	
1739282531483	0.015029907	
1739282531484	0.01159668	
1739282531485	0.010757446	
1739282531486	0.021743774	
1739282531487	0.010299683	
1739282531488	-0.044403076	
1739282531489	-0.075302124	
1739282531490	-0.05836487	
1739282531491	-0.038375854	
1739282531492	0.004501343	
1739282531493	0.03211975	
1739282531494	0.0146484375	
1739282531495	0.017166138	
1739282531496	0.025863647	
1739282531497	0.013656616	
1739282531498	-0.009841919	
1739282531499	-0.0073242188	
1739282531500	0.027770996	
1739282531501	0.018310547	
1739282531502	9.918213E-4	
1739282531503	0.013656616	
1739282531504	0.0132751465	
1739282531505	0.014724731	
1739282531506	0.007247925	
1739282531507	-0.0060272217	
1739282531508	-0.012588501	
1739282531509	-0.0090789795	
1739282531510	0.0074005127	
1739282531511	-0.004043579	
1739282531512	-0.0132751465	
1739282531513	0.0016784668	
1739282531514	0.005569458	
1739282531515	0.008850098	
1739282531516	0.013885498	
1739282531517	0.0059509277	
1739282531518	-0.005493164	
1739282531519	-0.009155273	
1739282531520	-0.0119018555	
1739282531521	-0.014038086	
1739282531522	-0.011367798	
1739282531523	-0.006942749	
1739282531524	-0.0031280518	
1739282531525	-0.010147095	
1739282531526	-0.014877319	
1739282531527	-0.009765625	
1739282531528	-0.00831604	
1739282531529	1.5258789E-4	
1739282531530	0.0035095215	
1739282531531	-0.0019073486	
1739282531532	0.0020599365	
1739282531533	0.004196167	
1739282531534	0.0035858154	
1739282531535	0.0064086914	
1739282531536	0.00579834	
1739282531537	6.1035156E-4	
1739282531538	1.5258789E-4	
1739282531539	0.004501343	
1739282531540	0.0032806396	
1739282531541	0.0024414062	
1739282531542	0.009994507	
1739282531543	0.007095337	
1739282531544	0.008010864	
1739282531545	0.022735596	
1739282531546	0.009460449	
1739282531547	-0.0060272217	
1739282531548	-0.001449585	
1739282531549	-0.0048828125	
1739282531550	-0.005569458	
1739282531551	-0.0049591064	
1739282531552	-0.0038146973	
1739282531553	-3.8146973E-4	
1739282531554	-0.003967285	
1739282531555	-0.004043579	
1739282531556	-0.0049591064	
1739282531557	-0.005493164	
1739282531558	-0.001449585	
1739282531559	-4.5776367E-4	
1739282531560	0.0011444092	
1739282531561	-9.1552734E-4	
1739282531562	-0.0050354004	
1739282531563	-0.0011444092	
1739282531564	0.0017547607	
1739282531565	-0.001449585	
1739282531566	-0.0018310547	
1739282531567	-5.340576E-4	
1739282531568	-0.0020599365	
1739282531569	-2.2888184E-4	
1739282531570	0.006790161	
1739282531571	0.009918213	
1739282531572	0.009765625	
1739282531573	0.015182495	
1739282531574	0.024719238	
1739282531575	0.021514893	
1739282531576	-2.2888184E-4	
1739282531577	-0.01777649	
1739282531578	-0.038757324	
1739282531579	-0.062408447	
1739282531580	-0.039749146	
1739282531581	-0.0018310547	
1739282531582	-0.004043579	
1739282531583	-0.0038146973	
1739282531584	0.01953125	
1739282531585	0.02998352	
1739282531586	0.033111572	
1739282531587	0.05050659	
1739282531588	0.07713318	
1739282531589	0.06278992	
1739282531590	-0.01449585	
1739282531591	-0.07003784	
1739282531592	-0.07041931	
1739282531593	-0.07400513	
1739282531594	-0.080947876	
1739282531595	-0.02494812	
1739282531596	0.033111572	
1739282531597	0.023040771	
1739282531598	0.01991272	
1739282531599	0.027770996	
1739282531600	0.025253296	
1739282531601	0.024642944	
1739282531602	0.018997192	
1739282531603	0.016021729	
1739282531604	0.009307861	
1739282531605	0.0036621094	
1739282531606	0.0046539307	
1739282531607	-6.866455E-4	
1739282531608	-9.1552734E-4	
1739282531609	-0.0010681152	
1739282531610	-0.005722046	
1739282531611	0.001373291	
1739282531612	-7.6293945E-4	
1739282531613	-0.010147095	
1739282531614	-0.006866455	
1739282531615	-0.005645752	
1739282531616	-0.004272461	
1739282531617	-0.002670288	
1739282531618	-0.006790161	
1739282531619	-0.008926392	
1739282531620	-0.010910034	
1739282531621	-0.008773804	
1739282531622	-0.004119873	
1739282531623	-0.0048828125	
1739282531624	-0.0032043457	
1739282531625	7.6293945E-5	
1739282531626	-2.2888184E-4	
1739282531627	-0.0012207031	
1739282531628	7.6293945E-4	
1739282531629	0.0022888184	
1739282531630	0.0	
1739282531631	0.0025939941	
1739282531632	0.006713867	
1739282531633	0.0060272217	
1739282531634	0.00579834	
1739282531635	0.0051116943	
1739282531636	0.00289917	
1739282531637	9.1552734E-4	
1739282531638	0.0022125244	
1739282531639	0.002822876	
1739282531640	7.6293945E-4	
1739282531641	0.0022888184	
1739282531642	0.0012969971	
1739282531643	-4.5776367E-4	
1739282531644	0.0049591064	
1739282531645	0.005645752	
1739282531646	-3.8146973E-4	
1739282531647	-0.0033569336	
1739282531648	-0.009536743	
1739282531649	-0.009918213	
1739282531650	-0.0010681152	
1739282531651	0.004272461	
1739282531652	0.007019043	
1739282531653	0.00289917	
1739282531654	0.004348755	
1739282531655	0.0061035156	
1739282531656	-0.0038909912	
1739282531657	-9.1552734E-4	
1739282531658	0.0019073486	
1739282531659	-0.0022125244	
1739282531660	0.0022125244	
1739282531661	3.0517578E-4	
1739282531662	-0.0049591064	
1739282531663	-0.0031280518	
1739282531664	-0.0022888184	
1739282531665	-0.0021362305	
1739282531666	-0.005340576	
1739282531667	-0.010604858	
1739282531668	-0.0050354004	
1739282531669	5.340576E-4	
1739282531670	-1.5258789E-4	
1739282531671	-0.0036621094	
1739282531672	-0.007019043	
1739282531673	-0.0016021729	
1739282531674	0.0016784668	
1739282531675	-7.6293945E-4	
1739282531676	-2.2888184E-4	
1739282531677	0.0035095215	
1739282531678	0.0073242188	
1739282531679	0.006942749	
1739282531680	0.004348755	
1739282531681	3.0517578E-4	
1739282531682	-0.0012969971	
1739282531683	0.0037384033	
1739282531684	0.004119873	
1739282531685	1.5258789E-4	
1739282531686	9.918213E-4	
1739282531687	0.0023651123	
1739282531688	0.0022888184	
1739282531689	0.0031280518	
1739282531690	0.0023651123	
1739282531691	6.866455E-4	
1739282531692	0.0024414062	
1739282531693	0.0	
1739282531694	-0.00579834	
1739282531695	-4.5776367E-4	
1739282531696	0.0018310547	
1739282531697	-0.0023651123	
1739282531698	-0.001373291	
1739282531699	-0.008163452	
1739282531700	-0.013504028	
1739282531701	-0.004196167	
1739282531702	-0.0012207031	
1739282531703	-1.5258789E-4	
1739282531704	0.005645752	
1739282531705	0.0011444092	
1739282531706	-0.0019073486	
1739282531707	-1.5258789E-4	
1739282531708	0.006713867	
1739282531709	0.018615723	
1739282531710	0.030136108	
1739282531711	0.021057129	
1739282531712	-0.02708435	
1739282531713	-0.020904541	
1739282531714	0.029907227	
1739282531715	0.026245117	
1739282531716	3.8146973E-4	
1739282531717	-0.029373169	
1739282531718	-0.045700073	
1739282531719	-0.046844482	
1739282531720	-0.051345825	
1739282531721	-0.049972534	
1739282531722	-0.026931763	
1739282531723	0.013961792	
1739282531724	0.029373169	
1739282531725	0.03540039	
1739282531726	0.038757324	
1739282531727	0.029220581	
1739282531728	0.030517578	
1739282531729	0.029220581	
1739282531730	0.026016235	
1739282531731	0.020599365	
1739282531732	0.009841919	
1739282531733	0.008544922	
1739282531734	0.0045776367	
1739282531735	-0.0023651123	
1739282531736	-0.005645752	
1739282531737	-0.006790161	
1739282531738	-0.008010864	
1739282531739	-0.016937256	
1739282531740	-0.019454956	
1739282531741	-0.015716553	
1739282531742	-0.021057129	
1739282531743	-0.020217896	
1739282531744	-0.0064849854	
1739282531745	0.0032043457	
1739282531746	0.0036621094	
1739282531747	0.012817383	
1739282531748	0.02418518	
1739282531749	0.010604858	
1739282531750	-0.008621216	
1739282531751	-0.015182495	
1739282531752	-0.030822754	
1739282531753	-0.049972534	
1739282531754	-0.027160645	
1739282531755	0.015716553	
1739282531756	0.022659302	
1739282531757	0.009307861	
1739282531758	0.010604858	
1739282531759	0.008392334	
1739282531760	7.6293945E-5	
1739282531761	0.0073242188	
1739282531762	0.004501343	
1739282531763	0.0031280518	
1739282531764	0.0077819824	
1739282531765	0.0023651123	
1739282531766	0.0061035156	
1739282531767	0.0035858154	
1739282531768	0.0024414062	
1739282531769	0.009155273	
1739282531770	0.004348755	
1739282531771	0.0032806396	
1739282531772	0.0029754639	
1739282531773	0.002746582	
1739282531774	3.0517578E-4	
1739282531775	-0.004196167	
1739282531776	6.1035156E-4	
1739282531777	3.0517578E-4	
1739282531778	-0.0015258789	
1739282531779	-0.0029754639	
1739282531780	-0.0048828125	
1739282531781	-0.0062561035	
1739282531782	-0.0062561035	
1739282531783	-4.5776367E-4	
1739282531784	-0.0020599365	
1739282531785	-0.0022888184	
1739282531786	1.5258789E-4	
1739282531787	-0.0018310547	
1739282531788	-9.1552734E-4	
1739282531789	1.5258789E-4	
1739282531790	2.2888184E-4	
1739282531791	-0.0019073486	
1739282531792	-0.0019836426	
1739282531793	-0.001373291	
1739282531794	-0.004425049	
1739282531795	-3.8146973E-4	
1739282531796	0.003967285	
1739282531797	0.0021362305	
1739282531798	4.5776367E-4	
1739282531799	-0.0012969971	
1739282531800	-0.0019073486	
1739282531801	-0.0019073486	
1739282531802	2.2888184E-4	
1739282531803	0.002746582	
1739282531804	6.1035156E-4	
1739282531805	0.0019836426	
1739282531806	0.004501343	
1739282531807	0.0022888184	
1739282531808	0.0051879883	
1739282531809	0.005645752	
1739282531810	0.0019073486	
1739282531811	0.0020599365	
1739282531812	0.0012969971	
1739282531813	-7.6293945E-4	
1739282531814	-0.0045776367	
1739282531815	-0.004043579	
1739282531816	-6.866455E-4	
1739282531817	-0.004501343	
1739282531818	-0.004196167	
1739282531819	4.5776367E-4	
1739282531820	-0.0019836426	
1739282531821	-0.0032043457	
1739282531822	-3.0517578E-4	
1739282531823	-4.5776367E-4	
1739282531824	-0.0016021729	
1739282531825	3.8146973E-4	
1739282531826	0.0024414062	
1739282531827	-3.0517578E-4	
1739282531828	-1.5258789E-4	
1739282531829	0.0020599365	
1739282531830	2.2888184E-4	
1739282531831	0.002746582	
1739282531832	0.005264282	
1739282531833	0.004501343	
1739282531834	0.002670288	
1739282531835	-7.6293945E-4	
1739282531836	-0.0037384033	
1739282531837	-0.014572144	
1739282531838	-0.016098022	
1739282531839	0.0034332275	
1739282531840	0.0076293945	
1739282531841	-0.001373291	
1739282531842	0.0035858154	
1739282531843	0.0064849854	
1739282531844	0.0024414062	
1739282531845	0.002746582	
1739282531846	0.0010681152	
1739282531847	-0.0016021729	
1739282531848	4.5776367E-4	
1739282531849	0.0050354004	
1739282531850	0.0032806396	
1739282531851	-0.0012207031	
1739282531852	-9.918213E-4	
1739282531853	-0.006942749	
1739282531854	-0.0061035156	
1739282531855	0.0012969971	
1739282531856	0.0030517578	
1739282531857	0.005645752	
1739282531858	0.0025939941	
1739282531859	-0.0022888184	
1739282531860	-0.0038909912	
1739282531861	-0.0022125244	
1739282531862	-5.340576E-4	
1739282531863	-0.002670288	
1739282531864	-0.0016021729	
1739282531865	-0.0045776367	
1739282531866	-0.004425049	
1739282531867	0.0033569336	
1739282531868	0.0015258789	
1739282531869	0.0016021729	
1739282531870	0.0031280518	
1739282531871	-2.2888184E-4	
1739282531872	-3.0517578E-4	
1739282531873	0.0	
1739282531874	0.0048828125	
1739282531875	0.0064086914	
1739282531876	0.0038909912	
1739282531877	0.005722046	
1739282531878	-0.0035095215	
1739282531879	-0.011138916	
1739282531880	-0.0060272217	
1739282531881	-5.340576E-4	
1739282531882	0.0048065186	
1739282531883	0.0016021729	
1739282531884	-6.1035156E-4	
1739282531885	9.1552734E-4	
1739282531886	-0.0018310547	
1739282531887	-3.8146973E-4	
1739282531888	3.8146973E-4	
1739282531889	-7.6293945E-4	
1739282531890	-0.01121521	
1739282531891	-0.02029419	
1739282531892	-0.0050354004	
1739282531893	0.0077819824	
1739282531894	0.0064086914	
1739282531895	0.00793457	
1739282531896	0.007858276	
1739282531897	0.006713867	
1739282531898	0.0062561035	
1739282531899	0.007858276	
1739282531900	0.006713867	
1739282531901	-0.004425049	
1739282531902	-0.00289917	
1739282531903	0.005645752	
1739282531904	-0.0023651123	
1739282531905	-0.0065612793	
1739282531906	-0.00289917	
1739282531907	-0.007019043	
1739282531908	-0.005493164	
1739282531909	0.0016784668	
1739282531910	0.0029754639	
1739282531911	0.0051879883	
1739282531912	0.0034332275	
1739282531913	-5.340576E-4	
1739282531914	6.866455E-4	
1739282531915	-2.2888184E-4	
1739282531916	-0.0062561035	
1739282531917	-0.008544922	
1739282531918	-0.0015258789	
1739282531919	6.866455E-4	
1739282531920	-0.004196167	
1739282531921	-0.009307861	
1739282531922	-0.00831604	
1739282531923	-0.0010681152	
1739282531924	0.0012969971	
1739282531925	0.0048065186	
1739282531926	0.005874634	
1739282531927	0.0049591064	
1739282531928	0.004348755	
1739282531929	0.005569458	
1739282531930	0.013580322	
1739282531931	0.0066375732	
1739282531932	-0.004348755	
1739282531933	0.0012207031	
1739282531934	0.0020599365	
1739282531935	-0.002822876	
1739282531936	-0.001449585	
1739282531937	-0.0033569336	
1739282531938	-0.0065612793	
1739282531939	-0.0090789795	
1739282531940	-0.0048065186	
1739282531941	0.0034332275	
1739282531942	-0.0019836426	
1739282531943	-0.00579834	
1739282531944	7.6293945E-5	
1739282531945	0.007858276	
1739282531946	0.008468628	
1739282531947	-4.5776367E-4	
1739282531948	0.0012969971	
1739282531949	0.002670288	
1739282531950	0.0012969971	
1739282531951	0.0045776367	
1739282531952	-0.007019043	
1739282531953	-0.012207031	
1739282531954	0.0016021729	
1739282531955	0.0025177002	
1739282531956	-0.0032043457	
1739282531957	-0.0011444092	
1739282531958	-0.0031280518	
1739282531959	-0.001449585	
1739282531960	0.0031280518	
1739282531961	-3.0517578E-4	
1739282531962	0.0015258789	
1739282531963	0.007095337	
1739282531964	0.0022125244	
1739282531965	-0.005645752	
1739282531966	-0.0018310547	
1739282531967	0.0065612793	
1739282531968	0.0066375732	
1739282531969	0.0012207031	
1739282531970	-0.0024414062	
1739282531971	-0.0016021729	
1739282531972	-0.0038146973	
1739282531973	-0.0016784668	
1739282531974	4.5776367E-4	
1739282531975	-9.1552734E-4	
1739282531976	0.0034332275	
1739282531977	-0.001373291	
1739282531978	-0.005722046	
1739282531979	-0.0031280518	
1739282531980	-0.0011444092	
1739282531981	0.0019073486	
1739282531982	0.004425049	
1739282531983	0.0059509277	
1739282531984	-0.0019836426	
1739282531985	-0.0065612793	
1739282531986	-0.0035858154	
1739282531987	-3.0517578E-4	
1739282531988	0.0049591064	
1739282531989	0.0020599365	
1739282531990	0.0016784668	
1739282531991	0.001373291	
1739282531992	-9.918213E-4	
1739282531993	0.0035858154	
1739282531994	0.002746582	
1739282531995	0.002670288	
1739282531996	0.0031280518	
1739282531997	-3.8146973E-4	
1739282531998	-0.009994507	
1739282531999	-0.008621216	
1739282532000	0.0051879883	
1739282532001	-0.0024414062	
1739282532002	-0.0051116943	
1739282532003	0.0025939941	
1739282532004	-9.918213E-4	
1739282532005	-0.0022125244	
1739282532006	5.340576E-4	
1739282532007	0.00579834	
1739282532008	-3.0517578E-4	
1739282532009	-0.00793457	
1739282532010	-3.8146973E-4	
1739282532011	0.0025939941	
1739282532012	-0.0020599365	
1739282532013	0.00289917	
1739282532014	0.011978149	
1739282532015	0.009918213	
1739282532016	0.009155273	
1739282532017	0.005569458	
1739282532018	-0.0020599365	
1739282532019	0.005493164	
1739282532020	-0.0051116943	
1739282532021	-0.0390625	
1739282532022	-0.042037964	
1739282532023	-0.0012969971	
1739282532024	0.018997192	
1739282532025	-0.0025939941	
1739282532026	0.0022125244	
1739282532027	0.008621216	
1739282532028	0.0025177002	
1739282532029	0.015716553	
1739282532030	0.00869751	
1739282532031	0.004501343	
1739282532032	0.012664795	
1739282532033	0.004348755	
1739282532034	-0.0051116943	
1739282532035	-0.008239746	
1739282532036	-0.0012207031	
1739282532037	-0.0022888184	
1739282532038	-0.010299683	
1739282532039	-0.0048828125	
1739282532040	0.0024414062	
1739282532041	0.0033569336	
1739282532042	0.0025939941	
1739282532043	6.866455E-4	
1739282532044	0.0029754639	
1739282532045	0.005874634	
1739282532046	1.5258789E-4	
1739282532047	0.001373291	
1739282532048	0.0032043457	
1739282532049	-0.00831604	
1739282532050	-0.009231567	
1739282532051	0.0038146973	
1739282532052	0.0047302246	
1739282532053	0.0030517578	
1739282532054	0.0090789795	
1739282532055	0.002746582	
1739282532056	-0.011749268	
1739282532057	-0.023269653	
1739282532058	-0.018005371	
1739282532059	0.0061035156	
1739282532060	0.009994507	
1739282532061	-5.340576E-4	
1739282532062	-0.0038146973	
1739282532063	-0.0031280518	
1739282532064	0.00831604	
1739282532065	0.01449585	
1739282532066	0.012130737	
1739282532067	0.005340576	
1739282532068	-0.001449585	
1739282532069	0.0012969971	
1739282532070	-1.5258789E-4	
1739282532071	-0.004196167	
1739282532072	-0.002746582	
1739282532073	0.00793457	
1739282532074	0.013122559	
1739282532075	0.002670288	
1739282532076	0.0022888184	
1739282532077	0.0030517578	
1739282532078	-0.0016021729	
1739282532079	-0.010604858	
1739282532080	-0.025024414	
1739282532081	-0.016784668	
1739282532082	-0.002746582	
1739282532083	-0.0045776367	
1739282532084	-0.0045776367	
1739282532085	0.00831604	
1739282532086	0.017700195	
1739282532087	0.0016784668	
1739282532088	-0.01449585	
1739282532089	-0.0012969971	
1739282532090	0.007858276	
1739282532091	-0.008773804	
1739282532092	-0.018920898	
1739282532093	-0.013046265	
1739282532094	0.004501343	
1739282532095	0.0075531006	
1739282532096	0.0077819824	
1739282532097	0.019989014	
1739282532098	0.012588501	
1739282532099	0.004501343	
1739282532100	-6.1035156E-4	
1739282532101	0.0019073486	
1739282532102	0.008087158	
1739282532103	4.5776367E-4	
1739282532104	-0.016326904	
1739282532105	-0.03265381	
1739282532106	-0.01777649	
1739282532107	5.340576E-4	
1739282532108	0.0046539307	
1739282532109	0.01625061	
1739282532110	0.018234253	
1739282532111	0.008621216	
1739282532112	0.0011444092	
1739282532113	7.6293945E-5	
1739282532114	0.002670288	
1739282532115	0.004196167	
1739282532116	0.002670288	
1739282532117	0.0016784668	
1739282532118	0.0036621094	
1739282532119	-1.5258789E-4	
1739282532120	-0.0032806396	
1739282532121	0.0025177002	
1739282532122	0.0031280518	
1739282532123	-0.0051879883	
1739282532124	-0.0032806396	
1739282532125	0.0016784668	
1739282532126	0.009536743	
1739282532127	0.017852783	
1739282532128	0.0016784668	
1739282532129	-0.00831604	
1739282532130	-0.00579834	
1739282532131	-0.0060272217	
1739282532132	0.0021362305	
1739282532133	8.392334E-4	
1739282532134	-0.0036621094	
1739282532135	-0.005569458	
1739282532136	-0.010757446	
1739282532137	-0.018463135	
1739282532138	-0.023956299	
1739282532139	0.0019836426	
1739282532140	0.017242432	
1739282532141	-3.8146973E-4	
1739282532142	-0.0016021729	
1739282532143	-0.012435913	
1739282532144	-0.026626587	
1739282532145	-0.0031280518	
1739282532146	0.021133423	
1739282532147	0.017471313	
1739282532148	0.012130737	
1739282532149	0.011062622	
1739282532150	0.01121521	
1739282532151	0.00793457	
1739282532152	-0.0017547607	
1739282532153	0.0034332275	
1739282532154	0.0062561035	
1739282532155	-0.0016784668	
1739282532156	-0.005264282	
1739282532157	-0.0074768066	
1739282532158	7.6293945E-5	
1739282532159	1.5258789E-4	
1739282532160	-0.007019043	
1739282532161	-0.005493164	
1739282532162	-0.0061035156	
1739282532163	-0.0023651123	
1739282532164	0.0032043457	
1739282532165	0.0036621094	
1739282532166	0.0035095215	
1739282532167	0.005264282	
1739282532168	-0.0064849854	
1739282532169	-0.020141602	
1739282532170	-0.0038909912	
1739282532171	0.004119873	
1739282532172	5.340576E-4	
1739282532173	-0.0012969971	
1739282532174	-0.007858276	
1739282532175	0.00289917	
1739282532176	0.0035095215	
1739282532177	0.0031280518	
1739282532178	0.01411438	
1739282532179	0.009002686	
1739282532180	0.0035095215	
1739282532181	-0.0033569336	
1739282532182	-0.0074768066	
1739282532183	-0.006790161	
1739282532184	-0.0032806396	
1739282532185	0.007247925	
1739282532186	0.005340576	
1739282532187	9.1552734E-4	
1739282532188	0.0048828125	
1739282532189	9.918213E-4	
1739282532190	-0.001373291	
1739282532191	-0.0016021729	
1739282532192	-0.004196167	
1739282532193	-6.1035156E-4	
1739282532194	-0.0038909912	
1739282532195	-0.0030517578	
1739282532196	0.008163452	
1739282532197	0.0024414062	
1739282532198	-0.0031280518	
1739282532199	0.0061798096	
1739282532200	0.0031280518	
1739282532201	-0.001373291	
1739282532202	3.0517578E-4	
1739282532203	-0.004501343	
1739282532204	-0.0023651123	
1739282532205	0.0031280518	
1739282532206	0.001373291	
1739282532207	-1.5258789E-4	
1739282532208	-0.0016021729	
1739282532209	-0.0035095215	
1739282532210	0.0015258789	
1739282532211	0.002670288	
1739282532212	-0.0021362305	
1739282532213	-9.1552734E-4	
1739282532214	-7.6293945E-4	
1739282532215	-0.0012969971	
1739282532216	-7.6293945E-5	
1739282532217	-3.8146973E-4	
1739282532218	-0.006790161	
1739282532219	-0.01121521	
1739282532220	-0.009002686	
1739282532221	-0.008010864	
1739282532222	0.0010681152	
1739282532223	0.008163452	
1739282532224	0.005340576	
1739282532225	0.010528564	
1739282532226	0.012435913	
1739282532227	0.0076293945	
1739282532228	0.009002686	
1739282532229	0.009002686	
1739282532230	-0.004501343	
1739282532231	-0.017623901	
1739282532232	-0.010757446	
1739282532233	7.6293945E-4	
1739282532234	0.007095337	
1739282532235	0.0034332275	
1739282532236	-0.0049591064	
1739282532237	0.0031280518	
1739282532238	0.007171631	
1739282532239	-0.0051116943	
1739282532240	-0.014419556	
1739282532241	-0.009307861	
1739282532242	-8.392334E-4	
1739282532243	-0.004119873	
1739282532244	-0.0019073486	
1739282532245	0.004348755	
1739282532246	0.00793457	
1739282532247	0.010375977	
1739282532248	0.001449585	
1739282532249	-7.6293945E-4	
1739282532250	0.0051116943	
1739282532251	0.0025177002	
1739282532252	0.0012207031	
1739282532253	-0.0016021729	
1739282532254	-0.006942749	
1739282532255	-0.0025939941	
1739282532256	0.0032806396	
1739282532257	-7.6293945E-5	
1739282532258	-0.005264282	
1739282532259	0.0016021729	
1739282532260	0.008773804	
1739282532261	0.0038909912	
1739282532262	-0.0046539307	
1739282532263	-0.0034332275	
1739282532264	0.0076293945	
1739282532265	6.866455E-4	
1739282532266	-0.0104522705	
1739282532267	-0.008773804	
1739282532268	-0.0063323975	
1739282532269	0.005722046	
1739282532270	0.0061798096	
1739282532271	3.8146973E-4	
1739282532272	0.0035095215	
1739282532273	-0.0020599365	
1739282532274	-0.0030517578	
1739282532275	-0.0045776367	
1739282532276	-0.010910034	
1739282532277	-0.0063323975	
1739282532278	8.392334E-4	
1739282532279	0.00541687	
1739282532280	0.0034332275	
1739282532281	-0.0061035156	
1739282532282	-0.0021362305	
1739282532283	0.009765625	
1739282532284	0.00289917	
1739282532285	-6.866455E-4	
1739282532286	0.008468628	
1739282532287	0.0045776367	
1739282532288	0.0019836426	
1739282532289	0.011291504	
1739282532290	0.014724731	
1739282532291	0.005493164	
1739282532292	-0.0064849854	
1739282532293	0.00579834	
1739282532294	0.010757446	
1739282532295	-0.0038909912	
1739282532296	-0.0045776367	
1739282532297	-0.0077819824	
1739282532298	-0.0063323975	
1739282532299	-0.0076293945	
1739282532300	-0.014801025	
1739282532301	-0.0060272217	
1739282532302	-0.0018310547	
1739282532303	-0.011367798	
1739282532304	-0.020370483	
1739282532305	-0.0064086914	
1739282532306	0.018005371	
1739282532307	0.0038909912	
1739282532308	-0.010910034	
1739282532309	0.009384155	
1739282532310	0.0119018555	
1739282532311	0.0060272217	
1739282532312	0.018005371	
1739282532313	0.013122559	
1739282532314	-0.016479492	
1739282532315	-0.036315918	
1739282532316	-0.036468506	
1739282532317	-0.020523071	
1739282532318	0.012130737	
1739282532319	0.027313232	
1739282532320	0.04333496	
1739282532321	0.05180359	
1739282532322	0.020523071	
1739282532323	0.004272461	
1739282532324	-3.8146973E-4	
1739282532325	-0.03135681	
1739282532326	-0.07904053	
1739282532327	-0.069885254	
1739282532328	7.6293945E-4	
1739282532329	0.018692017	
1739282532330	0.013961792	
1739282532331	0.029144287	
1739282532332	0.031585693	
1739282532333	0.048675537	
1739282532334	0.06088257	
1739282532335	0.041275024	
1739282532336	0.018615723	
1739282532337	0.0061798096	
1739282532338	-0.015335083	
1739282532339	-0.04196167	
1739282532340	-0.04219055	
1739282532341	-0.03265381	
1739282532342	-0.0630188	
1739282532343	-0.1108551	
1739282532344	-0.05958557	
1739282532345	0.009307861	
1739282532346	-0.0018310547	
1739282532347	0.016784668	
1739282532348	0.017623901	
1739282532349	0.004119873	
1739282532350	0.025863647	
1739282532351	0.020751953	
1739282532352	0.038986206	
1739282532353	0.057907104	
1739282532354	0.041503906	
1739282532355	0.04623413	
1739282532356	0.04386902	
1739282532357	0.021362305	
1739282532358	0.02708435	
1739282532359	0.033721924	
1739282532360	0.010681152	
1739282532361	-0.026626587	
1739282532362	-0.053253174	
1739282532363	-0.057907104	
1739282532364	-0.049362183	
1739282532365	-0.0064849854	
1739282532366	0.040283203	
1739282532367	0.04333496	
1739282532368	0.045928955	
1739282532369	0.02067566	
1739282532370	-0.017700195	
1739282532371	-0.0340271	
1739282532372	-0.13076782	
1739282532373	-0.16677856	
1739282532374	-0.029678345	
1739282532375	0.010299683	
1739282532376	-0.012969971	
1739282532377	0.04852295	
1739282532378	0.043640137	
1739282532379	0.00831604	
1739282532380	-0.021057129	
1739282532381	-0.060043335	
1739282532382	-0.037002563	
1739282532383	0.0012969971	
1739282532384	0.02609253	
1739282532385	0.03616333	
1739282532386	0.039749146	
1739282532387	0.050430298	
1739282532388	0.056381226	
1739282532389	0.08255005	
1739282532390	0.08369446	
1739282532391	0.047454834	
1739282532392	0.026321411	
1739282532393	-0.014266968	
1739282532394	-0.07423401	
1739282532395	-0.052642822	
1739282532396	-0.012741089	
1739282532397	-0.030593872	
1739282532398	-0.008926392	
1739282532399	-0.012893677	
1739282532400	-0.036392212	
1739282532401	-0.006790161	
1739282532402	-0.015182495	
1739282532403	-0.017166138	
1739282532404	0.013580322	
1739282532405	0.008087158	
1739282532406	-0.005340576	
1739282532407	0.012283325	
1739282532408	0.02784729	
1739282532409	0.029373169	
1739282532410	0.028533936	
1739282532411	-0.0024414062	
1739282532412	-0.026931763	
1739282532413	-0.018539429	
1739282532414	0.0019073486	
1739282532415	0.017852783	
1739282532416	0.029220581	
1739282532417	0.016403198	
1739282532418	-0.02204895	
1739282532419	-0.03074646	
1739282532420	-0.05065918	
1739282532421	-0.07072449	
1739282532422	-0.032577515	
1739282532423	-0.0065612793	
1739282532424	-0.0037384033	
1739282532425	0.004425049	
1739282532426	-0.007858276	
1739282532427	-0.011672974	
1739282532428	0.034561157	
1739282532429	0.054016113	
1739282532430	0.0104522705	
1739282532431	0.004119873	
1739282532432	0.025482178	
1739282532433	0.038986206	
1739282532434	0.053024292	
1739282532435	0.03555298	
1739282532436	0.045547485	
1739282532437	0.08148193	
1739282532438	0.046463013	
1739282532439	-0.023345947	
1739282532440	-0.04020691	
1739282532441	-0.050582886	
1739282532442	-0.077438354	
1739282532443	-0.06607056	
1739282532444	-0.024490356	
1739282532445	-0.03288269	
1739282532446	-0.05050659	
1739282532447	-0.033493042	
1739282532448	-0.015029907	
1739282532449	0.011444092	
1739282532450	0.015335083	
1739282532451	0.005645752	
1739282532452	6.866455E-4	
1739282532453	-0.0035095215	
1739282532454	0.009384155	
1739282532455	0.0037384033	
1739282532456	0.009536743	
1739282532457	0.017852783	
1739282532458	0.0033569336	
1739282532459	2.2888184E-4	
1739282532460	-0.0037384033	
1739282532461	-1.5258789E-4	
1739282532462	0.0045776367	
1739282532463	0.0076293945	
1739282532464	0.01701355	
1739282532465	0.008621216	
1739282532466	0.0051116943	
1739282532467	0.020980835	
1739282532468	0.027770996	
1739282532469	0.012130737	
1739282532470	0.0051116943	
1739282532471	-7.6293945E-5	
1739282532472	-0.0063323975	
1739282532473	-0.00579834	
1739282532474	-0.0035858154	
1739282532475	-0.008087158	
1739282532476	-0.0077819824	
1739282532477	-0.0059509277	
1739282532478	0.0024414062	
1739282532479	0.023880005	
1739282532480	0.015563965	
1739282532481	0.0022888184	
1739282532482	-0.004425049	
1739282532483	-0.027618408	
1739282532484	-0.03135681	
1739282532485	-0.005569458	
1739282532486	0.010757446	
1739282532487	0.0077056885	
1739282532488	6.1035156E-4	
1739282532489	-0.00541687	
1739282532490	-0.009460449	
1739282532491	-9.1552734E-4	
1739282532492	0.010299683	
1739282532493	6.866455E-4	
1739282532494	-0.0077056885	
1739282532495	-0.010223389	
1739282532496	-8.392334E-4	
1739282532497	0.0064086914	
1739282532498	-0.0030517578	
1739282532499	-0.011291504	
1739282532500	-0.012741089	
1739282532501	-0.0074768066	
1739282532502	0.008468628	
1739282532503	0.013427734	
1739282532504	0.01449585	
1739282532505	0.011978149	
1739282532506	6.1035156E-4	
1739282532507	-0.006866455	
1739282532508	-0.020751953	
1739282532509	-0.020370483	
1739282532510	0.0031280518	
1739282532511	0.016326904	
1739282532512	0.00831604	
1739282532513	0.00831604	
1739282532514	8.392334E-4	
1739282532515	-0.003967285	
1739282532516	2.2888184E-4	
1739282532517	0.001449585	
1739282532518	0.007858276	
1739282532519	-2.2888184E-4	
1739282532520	-0.008087158	
1739282532521	-0.009002686	
1739282532522	-0.004272461	
1739282532523	0.0029754639	
1739282532524	0.0032806396	
1739282532525	-6.1035156E-4	
1739282532526	-0.004501343	
1739282532527	0.0020599365	
1739282532528	0.011672974	
1739282532529	0.018844604	
1739282532530	0.010375977	
1739282532531	0.0077056885	
1739282532532	0.009231567	
1739282532533	-0.035629272	
1739282532534	-0.080947876	
1739282532535	-0.05630493	
1739282532536	0.012741089	
1739282532537	0.038223267	
1739282532538	0.020599365	
1739282532539	0.018844604	
1739282532540	0.018157959	
1739282532541	0.012512207	
1739282532542	0.022506714	
1739282532543	0.018692017	
1739282532544	0.004425049	
1739282532545	-0.0017547607	
1739282532546	-0.010910034	
1739282532547	-0.004348755	
1739282532548	0.0048828125	
1739282532549	-0.0046539307	
1739282532550	-0.007019043	
1739282532551	-6.866455E-4	
1739282532552	0.0032043457	
1739282532553	-0.004425049	
1739282532554	-0.022583008	
1739282532555	-0.021743774	
1739282532556	-0.014953613	
1739282532557	-0.012588501	
1739282532558	-0.019073486	
1739282532559	-0.020751953	
1739282532560	0.014724731	
1739282532561	0.010910034	
1739282532562	-0.012664795	
1739282532563	0.0035095215	
1739282532564	0.014953613	
1739282532565	0.049057007	
1739282532566	0.04600525	
1739282532567	0.007019043	
1739282532568	-0.0020599365	
1739282532569	-0.048980713	
1739282532570	-0.0705719	
1739282532571	-0.0051879883	
1739282532572	0.033111572	
1739282532573	0.0059509277	
1739282532574	-0.011367798	
1739282532575	-0.0024414062	
1739282532576	0.025100708	
1739282532577	0.025405884	
1739282532578	-0.00579834	
1739282532579	0.0059509277	
1739282532580	0.021591187	
1739282532581	0.029067993	
1739282532582	0.022354126	
1739282532583	-0.0048828125	
1739282532584	0.0033569336	
1739282532585	0.019302368	
1739282532586	0.015640259	
1739282532587	9.918213E-4	
1739282532588	-0.016174316	
1739282532589	-0.023345947	
1739282532590	-0.012741089	
1739282532591	-0.0012207031	
1739282532592	-0.013885498	
1739282532593	-0.019378662	
1739282532594	-0.001449585	
1739282532595	0.008850098	
1739282532596	0.002670288	
1739282532597	-0.01701355	
1739282532598	-0.03265381	
1739282532599	-0.021438599	
1739282532600	-0.0051879883	
1739282532601	-0.014266968	
1739282532602	-0.020141602	
1739282532603	-0.0031280518	
1739282532604	0.009841919	
1739282532605	0.009231567	
1739282532606	0.0050354004	
1739282532607	0.00579834	
1739282532608	0.020828247	
1739282532609	0.01625061	
1739282532610	-0.0061035156	
1739282532611	-0.011062622	
1739282532612	-0.02128601	
1739282532613	-0.02204895	
1739282532614	0.008392334	
1739282532615	0.018844604	
1739282532616	0.010375977	
1739282532617	0.013046265	
1739282532618	0.002746582	
1739282532619	0.0051116943	
1739282532620	0.015182495	
1739282532621	0.008087158	
1739282532622	0.008926392	
1739282532623	0.0020599365	
1739282532624	-0.0010681152	
1739282532625	-0.004043579	
1739282532626	-0.0048828125	
1739282532627	0.007019043	
1739282532628	0.001449585	
1739282532629	-0.0025939941	
1739282532630	-0.0048065186	
1739282532631	-9.1552734E-4	
1739282532632	0.01953125	
1739282532633	0.018615723	
1739282532634	-0.0049591064	
1739282532635	-0.03173828	
1739282532636	-0.038146973	
1739282532637	-0.035476685	
1739282532638	-0.03944397	
1739282532639	-0.0037384033	
1739282532640	0.017700195	
1739282532641	-7.6293945E-5	
1739282532642	0.014419556	
1739282532643	0.014953613	
1739282532644	0.0059509277	
1739282532645	0.009841919	
1739282532646	0.0032043457	
1739282532647	0.012054443	
1739282532648	0.017852783	
1739282532649	0.01373291	
1739282532650	0.015411377	
1739282532651	0.0047302246	
1739282532652	-0.0048065186	
1739282532653	-0.0047302246	
1739282532654	0.0038146973	
1739282532655	0.0061798096	
1739282532656	-0.012817383	
1739282532657	-0.020370483	
1739282532658	-4.5776367E-4	
1739282532659	-0.0017547607	
1739282532660	-0.0045776367	
1739282532661	0.0034332275	
1739282532662	-0.0019836426	
1739282532663	-0.0051116943	
1739282532664	0.002670288	
1739282532665	0.016326904	
1739282532666	0.0075531006	
1739282532667	0.0012969971	
1739282532668	0.004043579	
1739282532669	0.004196167	
1739282532670	0.014266968	
1739282532671	0.012893677	
1739282532672	0.0074005127	
1739282532673	0.0020599365	
1739282532674	-0.026626587	
1739282532675	-0.043945312	
1739282532676	-0.03364563	
1739282532677	-0.01449585	
1739282532678	-0.0051879883	
1739282532679	-3.8146973E-4	
1739282532680	0.005722046	
1739282532681	0.0019836426	
1739282532682	-0.0047302246	
1739282532683	0.0016784668	
1739282532684	0.0012969971	
1739282532685	3.8146973E-4	
1739282532686	0.011520386	
1739282532687	0.015945435	
1739282532688	0.020904541	
1739282532689	0.02784729	
1739282532690	0.01914978	
1739282532691	0.0059509277	
1739282532692	-0.01121521	
1739282532693	-0.03326416	
1739282532694	-0.024261475	
1739282532695	-8.392334E-4	
1739282532696	0.007095337	
1739282532697	0.021972656	
1739282532698	0.02456665	
1739282532699	0.01159668	
1739282532700	0.0065612793	
1739282532701	-0.009689331	
1739282532702	-0.028686523	
1739282532703	-0.03425598	
1739282532704	-0.02571106	
1739282532705	-0.0016021729	
1739282532706	0.0047302246	
1739282532707	0.0035095215	
1739282532708	0.0059509277	
1739282532709	0.0037384033	
1739282532710	0.0074005127	
1739282532711	0.008544922	
1739282532712	0.00793457	
1739282532713	0.009613037	
1739282532714	0.0020599365	
1739282532715	-3.8146973E-4	
1739282532716	3.0517578E-4	
1739282532717	-0.003967285	
1739282532718	0.0021362305	
1739282532719	0.0035095215	
1739282532720	-0.0032806396	
1739282532721	-0.0046539307	
1739282532722	-0.008163452	
1739282532723	-0.015563965	
1739282532724	-0.013427734	
1739282532725	-0.0038146973	
1739282532726	0.008544922	
1739282532727	0.01663208	
1739282532728	0.011062622	
1739282532729	0.0032806396	
1739282532730	0.0	
1739282532731	-0.004501343	
1739282532732	-9.1552734E-4	
1739282532733	0.0012207031	
1739282532734	-0.0036621094	
1739282532735	0.0035095215	
1739282532736	0.0062561035	
1739282532737	0.0038909912	
1739282532738	0.00869751	
1739282532739	0.0011444092	
1739282532740	-0.0021362305	
1739282532741	-0.002746582	
1739282532742	-0.01373291	
1739282532743	-0.0033569336	
1739282532744	-0.004119873	
1739282532745	-0.048980713	
1739282532746	-0.044937134	
1739282532747	0.014190674	
1739282532748	0.012283325	
1739282532749	3.8146973E-4	
1739282532750	0.02708435	
1739282532751	0.0289917	
1739282532752	0.021972656	
1739282532753	0.002670288	
1739282532754	-0.052261353	
1739282532755	-0.07728577	
1739282532756	-0.013656616	
1739282532757	0.035324097	
1739282532758	0.018615723	
1739282532759	0.022277832	
1739282532760	0.017700195	
1739282532761	0.005722046	
1739282532762	0.032806396	
1739282532763	0.033950806	
1739282532764	0.024108887	
1739282532765	0.028381348	
1739282532766	0.016098022	
1739282532767	0.008392334	
1739282532768	0.0022888184	
1739282532769	-0.016784668	
1739282532770	-0.031967163	
1739282532771	-0.039138794	
1739282532772	-0.025558472	
1739282532773	-0.010757446	
1739282532774	-0.017242432	
1739282532775	-0.014038086	
1739282532776	-6.866455E-4	
1739282532777	-0.004425049	
1739282532778	-0.004272461	
1739282532779	-0.0046539307	
1739282532780	-0.008392334	
1739282532781	0.0051116943	
1739282532782	0.018005371	
1739282532783	0.027694702	
1739282532784	0.033111572	
1739282532785	0.027542114	
1739282532786	0.023880005	
1739282532787	0.004348755	
1739282532788	-0.009536743	
1739282532789	-6.866455E-4	
1739282532790	-0.005340576	
1739282532791	-0.02998352	
1739282532792	-0.039978027	
1739282532793	-0.02319336	
1739282532794	-0.01449585	
1739282532795	-0.005874634	
1739282532796	0.026779175	
1739282532797	0.042648315	
1739282532798	0.020751953	
1739282532799	0.0061035156	
1739282532800	-0.010910034	
1739282532801	-0.023345947	
1739282532802	-0.044403076	
1739282532803	-0.09849548	
1739282532804	-0.06271362	
1739282532805	0.032806396	
1739282532806	0.061798096	
1739282532807	0.065078735	
1739282532808	0.04814148	
1739282532809	0.0025939941	
1739282532810	-0.01739502	
1739282532811	0.0025177002	
1739282532812	0.004348755	
1739282532813	-0.04508972	
1739282532814	-0.041122437	
1739282532815	0.052337646	
1739282532816	0.102767944	
1739282532817	0.047302246	
1739282532818	0.02532959	
1739282532819	0.02532959	
1739282532820	-0.069732666	
1739282532821	-0.15792847	
1739282532822	-0.16403198	
1739282532823	-0.089416504	
1739282532824	0.0132751465	
1739282532825	0.043640137	
1739282532826	0.03189087	
1739282532827	0.034866333	
1739282532828	0.054244995	
1739282532829	0.059814453	
1739282532830	0.066986084	
1739282532831	0.08293152	
1739282532832	0.058135986	
1739282532833	0.025558472	
1739282532834	0.021057129	
1739282532835	-0.016098022	
1739282532836	-0.055770874	
1739282532837	-0.063323975	
1739282532838	-0.049057007	
1739282532839	0.009231567	
1739282532840	0.042877197	
1739282532841	0.01953125	
1739282532842	0.005722046	
1739282532843	0.03807068	
1739282532844	0.04425049	
1739282532845	-0.011367798	
1739282532846	-0.04814148	
1739282532847	-0.068359375	
1739282532848	-0.08300781	
1739282532849	-0.06843567	
1739282532850	-0.03288269	
1739282532851	0.012969971	
1739282532852	0.03189087	
1739282532853	0.0049591064	
1739282532854	-0.018997192	
1739282532855	-0.015716553	
1739282532856	-0.014572144	
1739282532857	-0.018157959	
1739282532858	0.0037384033	
1739282532859	0.031051636	
1739282532860	0.013885498	
1739282532861	-0.0146484375	
1739282532862	-0.010757446	
1739282532863	0.016403198	
1739282532864	0.02166748	
1739282532865	-0.0021362305	
1739282532866	0.001449585	
1739282532867	0.012359619	
1739282532868	-0.011444092	
1739282532869	-0.0064849854	
1739282532870	0.032196045	
1739282532871	0.033569336	
1739282532872	0.028686523	
1739282532873	0.02609253	
1739282532874	0.0034332275	
1739282532875	0.0012207031	
1739282532876	0.024642944	
1739282532877	0.057144165	
1739282532878	0.08003235	
1739282532879	0.08972168	
1739282532880	0.09338379	
1739282532881	0.04798889	
1739282532882	-0.007247925	
1739282532883	-0.025634766	
1739282532884	-0.072021484	
1739282532885	-0.13389587	
1739282532886	-0.14297485	
1739282532887	-0.087127686	
1739282532888	-0.02571106	
1739282532889	-0.01777649	
1739282532890	-0.021743774	
1739282532891	-0.02204895	
1739282532892	-0.03829956	
1739282532893	-0.022583008	
1739282532894	-0.011138916	
1739282532895	-0.02609253	
1739282532896	-0.04058838	
1739282532897	-0.056533813	
1739282532898	0.05050659	
1739282532899	0.14175415	
1739282532900	0.07102966	
1739282532901	0.03189087	
1739282532902	0.030670166	
1739282532903	0.039749146	
1739282532904	0.07888794	
1739282532905	0.055770874	
1739282532906	0.018310547	
1739282532907	0.022125244	
1739282532908	0.023269653	
1739282532909	-0.008010864	
1739282532910	-0.02456665	
1739282532911	-0.015029907	
1739282532912	-0.02067566	
1739282532913	-0.03364563	
1739282532914	-0.038146973	
1739282532915	-0.046844482	
1739282532916	-0.05126953	
1739282532917	-0.028457642	
1739282532918	-0.0036621094	
1739282532919	0.01373291	
1739282532920	0.020446777	
1739282532921	-6.866455E-4	
1739282532922	0.007858276	
1739282532923	0.03715515	
1739282532924	0.004272461	
1739282532925	-0.03074646	
1739282532926	-0.060272217	
1739282532927	-0.11550903	
1739282532928	-0.15724182	
1739282532929	-0.10864258	
1739282532930	0.008163452	
1739282532931	0.035095215	
1739282532932	-0.0019073486	
1739282532933	0.010147095	
1739282532934	0.015029907	
1739282532935	-0.010910034	
1739282532936	0.012512207	
1739282532937	0.037231445	
1739282532938	0.040130615	
1739282532939	0.05882263	
1739282532940	0.06591797	
1739282532941	0.07736206	
1739282532942	0.09437561	
1739282532943	0.07797241	
1739282532944	0.066223145	
1739282532945	0.058746338	
1739282532946	0.034179688	
1739282532947	0.02281189	
1739282532948	0.021057129	
1739282532949	0.022964478	
1739282532950	0.013809204	
1739282532951	-0.0015258789	
1739282532952	-0.011291504	
1739282532953	-0.023345947	
1739282532954	-0.031814575	
1739282532955	-0.05470276	
1739282532956	-0.08255005	
1739282532957	-0.08506775	
1739282532958	-0.08407593	
1739282532959	-0.09643555	
1739282532960	-0.11405945	
1739282532961	-0.111694336	
1739282532962	-0.04348755	
1739282532963	0.041275024	
1739282532964	0.07461548	
1739282532965	0.066986084	
1739282532966	0.024642944	
1739282532967	-0.004501343	
1739282532968	0.057678223	
1739282532969	0.14320374	
1739282532970	0.1298523	
1739282532971	0.07362366	
1739282532972	0.08476257	
1739282532973	0.10848999	
1739282532974	0.06385803	
1739282532975	0.030899048	
1739282532976	0.012054443	
1739282532977	-0.005569458	
1739282532978	-0.030441284	
1739282532979	-0.060195923	
1739282532980	-0.07354736	
1739282532981	-0.08377075	
1739282532982	-0.08239746	
1739282532983	-0.09147644	
1739282532984	-0.10902405	
1739282532985	-0.088653564	
1739282532986	-0.06813049	
1739282532987	-0.078430176	
1739282532988	-0.06248474	
1739282532989	-0.011444092	
1739282532990	-0.00831604	
1739282532991	-0.061569214	
1739282532992	-0.050354004	
1739282532993	-0.006942749	
1739282532994	0.007247925	
1739282532995	0.042419434	
1739282532996	0.044555664	
1739282532997	2.2888184E-4	
1739282532998	-0.016174316	
1739282532999	0.0045776367	
1739282533000	0.03326416	
1739282533001	0.05126953	
1739282533002	0.054092407	
1739282533003	0.05104065	
1739282533004	0.06965637	
1739282533005	0.09902954	
1739282533006	0.11642456	
1739282533007	0.11779785	
1739282533008	0.100860596	
1739282533009	0.08270264	
1739282533010	0.060043335	
1739282533011	0.01991272	
1739282533012	-0.015258789	
1739282533013	-0.01449585	
1739282533014	-0.0104522705	
1739282533015	-0.02029419	
1739282533016	-0.012512207	
1739282533017	-0.015335083	
1739282533018	-0.0289917	
1739282533019	-0.041275024	
1739282533020	-0.077438354	
1739282533021	-0.10345459	
1739282533022	-0.10398865	
1739282533023	-0.114212036	
1739282533024	-0.14015198	
1739282533025	-0.15075684	
1739282533026	-0.09689331	
1739282533027	-0.051498413	
1739282533028	-0.049819946	
1739282533029	-0.034484863	
1739282533030	-0.008010864	
1739282533031	-0.0012207031	
1739282533032	0.01991272	
1739282533033	0.05455017	
1739282533034	0.05744934	
1739282533035	0.056533813	
1739282533036	0.06263733	
1739282533037	0.07904053	
1739282533038	0.09437561	
1739282533039	0.07759094	
1739282533040	0.07072449	
1739282533041	0.07720947	
1739282533042	0.070114136	
1739282533043	0.0541687	
1739282533044	0.039749146	
1739282533045	0.062026978	
1739282533046	0.07095337	
1739282533047	0.043640137	
1739282533048	0.037231445	
1739282533049	0.03326416	
1739282533050	0.015258789	
1739282533051	9.918213E-4	
1739282533052	-0.0060272217	
1739282533053	-0.016403198	
1739282533054	-0.022964478	
1739282533055	-0.02861023	
1739282533056	-0.042419434	
1739282533057	-0.05432129	
1739282533058	-0.05722046	
1739282533059	-0.050430298	
1739282533060	-0.046844482	
1739282533061	-0.047912598	
1739282533062	-0.052490234	
1739282533063	-0.04798889	
1739282533064	-0.025482178	
1739282533065	-0.0037384033	
1739282533066	-0.009231567	
1739282533067	-0.03868103	
1739282533068	-0.06462097	
1739282533069	-0.07736206	
1739282533070	-0.055999756	
1739282533071	-0.031814575	
1739282533072	-0.021057129	
1739282533073	-0.0017547607	
1739282533074	0.011672974	
1739282533075	0.027770996	
1739282533076	0.042648315	
1739282533077	0.0440979	
1739282533078	0.036239624	
1739282533079	0.030059814	
1739282533080	0.021591187	
1739282533081	0.008850098	
1739282533082	0.002670288	
1739282533083	0.0046539307	
1739282533084	0.019454956	
1739282533085	0.022583008	
1739282533086	0.011749268	
1739282533087	0.015563965	
1739282533088	0.012588501	
1739282533089	-0.0049591064	
1739282533090	-0.005264282	
1739282533091	-2.2888184E-4	
1739282533092	0.0017547607	
1739282533093	0.0035858154	
1739282533094	0.008163452	
1739282533095	0.009765625	
1739282533096	-0.0051879883	
1739282533097	-0.013198853	
1739282533098	0.0031280518	
1739282533099	0.004425049	
1739282533100	-0.009765625	
1739282533101	-0.017547607	
1739282533102	-0.021514893	
1739282533103	-0.022201538	
1739282533104	-0.007095337	
1739282533105	0.018539429	
1739282533106	0.019226074	
1739282533107	0.0076293945	
1739282533108	0.0077819824	
1739282533109	0.0030517578	
1739282533110	1.5258789E-4	
1739282533111	0.010757446	
1739282533112	0.00793457	
1739282533113	0.009841919	
1739282533114	0.032958984	
1739282533115	0.026016235	
1739282533116	0.017852783	
1739282533117	0.019683838	
1739282533118	0.016174316	
1739282533119	0.021743774	
1739282533120	0.008773804	
1739282533121	-7.6293945E-5	
1739282533122	0.0075531006	
1739282533123	0.008163452	
1739282533124	0.0118255615	
1739282533125	0.0049591064	
1739282533126	0.0065612793	
1739282533127	0.012512207	
1739282533128	-0.0077056885	
1739282533129	-0.00869751	
1739282533130	-0.015640259	
1739282533131	-0.02746582	
1739282533132	-0.024871826	
1739282533133	-0.02746582	
1739282533134	-0.027770996	
1739282533135	-0.022201538	
1739282533136	-0.01991272	
1739282533137	-0.02532959	
1739282533138	-0.02861023	
1739282533139	-0.021057129	
1739282533140	-0.02029419	
1739282533141	-0.02029419	
1739282533142	-0.016555786	
1739282533143	-0.019760132	
1739282533144	-0.01777649	
1739282533145	-0.016403198	
1739282533146	-0.013198853	
1739282533147	0.0045776367	
1739282533148	0.0048065186	
1739282533149	0.0032043457	
1739282533150	0.014801025	
1739282533151	0.017623901	
1739282533152	0.021133423	
1739282533153	0.012969971	
1739282533154	0.0045776367	
1739282533155	0.017318726	
1739282533156	0.017623901	
1739282533157	0.004043579	
1739282533158	-0.0037384033	
1739282533159	8.392334E-4	
1739282533160	0.029525757	
1739282533161	0.06111145	
1739282533162	0.06362915	
1739282533163	0.048980713	
1739282533164	0.057678223	
1739282533165	0.038986206	
1739282533166	-0.058517456	
1739282533167	-0.11482239	
1739282533168	-0.066986084	
1739282533169	-0.0016021729	
1739282533170	0.004425049	
1739282533171	-0.04951477	
1739282533172	-0.060272217	
1739282533173	0.056991577	
1739282533174	0.20454407	
1739282533175	0.20744324	
1739282533176	0.105285645	
1739282533177	-0.020065308	
1739282533178	-0.16014099	
1739282533179	-0.20774841	
1739282533180	-0.19485474	
1739282533181	-0.17494202	
1739282533182	-0.12908936	
1739282533183	-0.099868774	
1739282533184	-0.036315918	
1739282533185	0.021362305	
1739282533186	0.046691895	
1739282533187	0.09300232	
1739282533188	0.11238098	
1739282533189	0.09513855	
1739282533190	0.08117676	
1739282533191	0.0630188	
1739282533192	0.03112793	
1739282533193	0.037384033	
1739282533194	0.063323975	
1739282533195	0.055618286	
1739282533196	0.05142212	
1739282533197	0.049438477	
1739282533198	0.036010742	
1739282533199	0.021743774	
1739282533200	-0.0037384033	
1739282533201	-0.026168823	
1739282533202	-0.028686523	
1739282533203	-0.017623901	
1739282533204	-0.019226074	
1739282533205	-0.03479004	
1739282533206	-0.04776001	
1739282533207	-0.04989624	
1739282533208	-0.029525757	
1739282533209	-0.007247925	
1739282533210	0.018310547	
1739282533211	0.02708435	
1739282533212	-3.0517578E-4	
1739282533213	0.0025939941	
1739282533214	0.004196167	
1739282533215	-0.05607605	
1739282533216	-0.07972717	
1739282533217	-0.06072998	
1739282533218	-0.0541687	
1739282533219	0.036239624	
1739282533220	0.14785767	
1739282533221	0.15731812	
1739282533222	0.15174866	
1739282533223	0.0579834	
1739282533224	-0.1335907	
1739282533225	-0.21217346	
1739282533226	-0.21957397	
1739282533227	-0.11932373	
1739282533228	0.081100464	
1739282533229	0.131073	
1739282533230	0.035858154	
1739282533231	-0.078430176	
1739282533232	-0.1563263	
1739282533233	-0.20683289	
1739282533234	-0.20423889	
1739282533235	-0.1612854	
1739282533236	-0.028152466	
1739282533237	0.16365051	
1739282533238	0.23643494	
1739282533239	0.28121948	
1739282533240	0.29640198	
1739282533241	0.18440247	
1739282533242	0.049057007	
1739282533243	-0.012207031	
1739282533244	0.0390625	
1739282533245	0.051727295	
1739282533246	0.022964478	
1739282533247	0.0090789795	
1739282533248	0.004348755	
1739282533249	0.009765625	
1739282533250	-0.049362183	
1739282533251	-0.05744934	
1739282533252	-0.01953125	
1739282533253	-0.019378662	
1739282533254	-0.05996704	
1739282533255	-0.11062622	
1739282533256	-0.050048828	
1739282533257	-0.0315094	
1739282533258	-0.075683594	
1739282533259	-0.04585266	
1739282533260	-0.049362183	
1739282533261	-0.05882263	
1739282533262	-0.03730774	
1739282533263	-0.026321411	
1739282533264	0.010681152	
1739282533265	0.02243042	
1739282533266	-0.017166138	
1739282533267	-0.022277832	
1739282533268	0.005569458	
1739282533269	0.006790161	
1739282533270	0.0061798096	
1739282533271	0.024261475	
1739282533272	0.0029754639	
1739282533273	-0.025100708	
1739282533274	0.030670166	
1739282533275	0.06591797	
1739282533276	0.059661865	
1739282533277	0.13122559	
1739282533278	0.18363953	
1739282533279	0.13237	
1739282533280	0.043411255	
1739282533281	-0.004272461	
1739282533282	0.058059692	
1739282533283	0.024871826	
1739282533284	-0.18760681	
1739282533285	-0.20454407	
1739282533286	-0.122299194	
1739282533287	-0.19760132	
1739282533288	-0.22193909	
1739282533289	-0.115356445	
1739282533290	0.0023651123	
1739282533291	0.055541992	
1739282533292	0.062561035	
1739282533293	0.044403076	
1739282533294	0.054473877	
1739282533295	0.12901306	
1739282533296	0.15083313	
1739282533297	0.1385498	
1739282533298	0.09750366	
1739282533299	0.023422241	
1739282533300	-0.002670288	
1739282533301	-0.05760193	
1739282533302	-0.0818634	
1739282533303	-0.039749146	
1739282533304	-0.0118255615	
1739282533305	0.036315918	
1739282533306	0.08018494	
1739282533307	0.08766174	
1739282533308	0.08087158	
1739282533309	0.06637573	
1739282533310	0.018157959	
1739282533311	-0.04333496	
1739282533312	-0.07522583	
1739282533313	-0.116500854	
1739282533314	-0.11154175	
1739282533315	-0.04814148	
1739282533316	-0.009307861	
1739282533317	0.007019043	
1739282533318	0.016784668	
1739282533319	0.037231445	
1739282533320	0.043640137	
1739282533321	9.1552734E-4	
1739282533322	-0.059432983	
1739282533323	-0.07507324	
1739282533324	-0.048675537	
1739282533325	-0.045318604	
1739282533326	-0.064697266	
1739282533327	-0.07041931	
1739282533328	-0.054779053	
1739282533329	0.00579834	
1739282533330	0.07537842	
1739282533331	0.04547119	
1739282533332	0.0035858154	
1739282533333	-0.01876831	
1739282533334	-0.10154724	
1739282533335	-0.025558472	
1739282533336	0.1387024	
1739282533337	0.16166687	
1739282533338	0.17318726	
1739282533339	0.18104553	
1739282533340	0.042800903	
1739282533341	-0.12435913	
1739282533342	-0.14038086	
1739282533343	-0.17532349	
1739282533344	-0.1424408	
1739282533345	0.03593445	
1739282533346	0.078125	
1739282533347	0.08491516	
1739282533348	0.09674072	
1739282533349	0.08720398	
1739282533350	0.13275146	
1739282533351	0.121154785	
1739282533352	0.0047302246	
1739282533353	-0.10826111	
1739282533354	-0.09277344	
1739282533355	-0.083847046	
1739282533356	-0.09643555	
1739282533357	-0.060195923	
1739282533358	-0.066604614	
1739282533359	-0.04547119	
1739282533360	-0.024490356	
1739282533361	-0.057907104	
1739282533362	-0.022964478	
1739282533363	0.100097656	
1739282533364	0.15792847	
1739282533365	0.072784424	
1739282533366	0.07896423	
1739282533367	0.12771606	
1739282533368	-0.017852783	
1739282533369	-0.107040405	
1739282533370	-0.06904602	
1739282533371	-0.08216858	
1739282533372	-0.03982544	
1739282533373	0.038375854	
1739282533374	0.023269653	
1739282533375	-0.0012207031	
1739282533376	0.040893555	
1739282533377	0.08224487	
1739282533378	0.016708374	
1739282533379	-0.08117676	
1739282533380	-0.16082764	
1739282533381	-0.2695465	
1739282533382	-0.22361755	
1739282533383	-0.03211975	
1739282533384	0.0011444092	
1739282533385	-0.028305054	
1739282533386	0.07270813	
1739282533387	0.1763916	
1739282533388	0.26817322	
1739282533389	0.28160095	
1739282533390	0.15983582	
1739282533391	-0.02418518	
1739282533392	-0.13191223	
1739282533393	-0.02609253	
1739282533394	0.016479492	
1739282533395	0.06652832	
1739282533396	0.06813049	
1739282533397	-0.11566162	
1739282533398	-0.08956909	
1739282533399	-0.084609985	
1739282533400	-0.09918213	
1739282533401	0.032424927	
1739282533402	0.12779236	
1739282533403	0.1789093	
1739282533404	0.049209595	
1739282533405	-0.03616333	
1739282533406	-0.039367676	
1739282533407	-0.10444641	
1739282533408	-0.08605957	
1739282533409	-0.08079529	
1739282533410	-0.047225952	
1739282533411	0.07446289	
1739282533412	0.10787964	
1739282533413	0.025253296	
1739282533414	-0.07026672	
1739282533415	-0.116500854	
1739282533416	-0.19638062	
1739282533417	-0.17318726	
1739282533418	0.029907227	
1739282533419	0.092163086	
1739282533420	0.040664673	
1739282533421	0.028533936	
1739282533422	-0.021362305	
1739282533423	-5.340576E-4	
1739282533424	0.08018494	
1739282533425	0.09262085	
1739282533426	0.10650635	
1739282533427	0.11604309	
1739282533428	0.07148743	
1739282533429	-0.0035095215	
1739282533430	-0.060806274	
1739282533431	-0.07034302	
1739282533432	-0.024795532	
1739282533433	0.025863647	
1739282533434	0.009155273	
1739282533435	-0.0074005127	
1739282533436	7.6293945E-4	
1739282533437	0.036621094	
1739282533438	0.16601562	
1739282533439	0.1764679	
1739282533440	0.03479004	
1739282533441	-0.08125305	
1739282533442	-0.19767761	
1739282533443	-0.1650238	
1739282533444	-0.038223267	
1739282533445	-0.057373047	
1739282533446	-0.045013428	
1739282533447	0.026473999	
1739282533448	-0.008010864	
1739282533449	-0.021743774	
1739282533450	-0.0038909912	
1739282533451	0.021438599	
1739282533452	0.034103394	
1739282533453	-0.0036621094	
1739282533454	0.0064849854	
1739282533455	0.05508423	
1739282533456	0.08728027	
1739282533457	0.05783081	
1739282533458	0.0047302246	
1739282533459	-0.08468628	
1739282533460	-0.18257141	
1739282533461	-0.1599884	
1739282533462	-0.053024292	
1739282533463	-0.022277832	
1739282533464	-0.015411377	
1739282533465	0.0869751	
1739282533466	0.10864258	
1739282533467	0.031051636	
1739282533468	0.026626587	
1739282533469	0.026245117	
1739282533470	0.011444092	
1739282533471	0.05088806	
1739282533472	0.05355835	
1739282533473	0.015792847	
1739282533474	0.07499695	
1739282533475	0.12283325	
1739282533476	0.03593445	
1739282533477	0.030822754	
1739282533478	0.092315674	
1739282533479	0.050735474	
1739282533480	-0.029830933	
1739282533481	-0.15686035	
1739282533482	-0.19668579	
1739282533483	-0.117263794	
1739282533484	-0.069503784	
1739282533485	-0.025558472	
1739282533486	-0.0064086914	
1739282533487	-0.009231567	
1739282533488	-0.00793457	
1739282533489	0.00831604	
1739282533490	0.020523071	
1739282533491	0.014572144	
1739282533492	0.015945435	
1739282533493	-6.1035156E-4	
1739282533494	-0.017089844	
1739282533495	-0.00793457	
1739282533496	0.011062622	
1739282533497	0.011444092	
1739282533498	-0.0017547607	
1739282533499	-0.007171631	
1739282533500	0.023269653	
1739282533501	0.06568909	
1739282533502	0.048217773	
1739282533503	0.031585693	
1739282533504	0.03036499	
1739282533505	0.022201538	
1739282533506	0.051345825	
1739282533507	0.06889343	
1739282533508	0.04951477	
1739282533509	0.017623901	
1739282533510	0.0038909912	
1739282533511	-0.025253296	
1739282533512	-0.11039734	
1739282533513	-0.117111206	
1739282533514	-0.027313232	
1739282533515	-0.0012969971	
1739282533516	-0.039138794	
1739282533517	-0.0630188	
1739282533518	-0.0390625	
1739282533519	0.0146484375	
1739282533520	0.025558472	
1739282533521	0.04386902	
1739282533522	0.059432983	
1739282533523	0.0076293945	
1739282533524	-0.009536743	
1739282533525	0.001373291	
1739282533526	-0.0049591064	
1739282533527	8.392334E-4	
1739282533528	0.0038146973	
1739282533529	0.001373291	
1739282533530	-0.0035095215	
1739282533531	0.00289917	
1739282533532	0.007095337	
1739282533533	-0.001373291	
1739282533534	0.00541687	
1739282533535	0.0016784668	
1739282533536	-0.005874634	
1739282533537	8.392334E-4	
1739282533538	0.0064849854	
1739282533539	7.6293945E-5	
1739282533540	-0.004043579	
1739282533541	-0.0012207031	
1739282533542	3.8146973E-4	
1739282533543	-0.0022888184	
1739282533544	-0.008239746	
1739282533545	-0.017852783	
1739282533546	-0.02670288	
1739282533547	-0.0289917	
1739282533548	-0.019760132	
1739282533549	-0.017547607	
1739282533550	-0.015106201	
1739282533551	-0.00831604	
1739282533552	-0.0035095215	
1739282533553	0.005264282	
1739282533554	0.003967285	
1739282533555	0.0032806396	
1739282533556	0.005569458	
1739282533557	0.009841919	
1739282533558	0.018310547	
1739282533559	0.020904541	
1739282533560	0.02456665	
1739282533561	0.023269653	
1739282533562	0.015182495	
1739282533563	0.01373291	
1739282533564	0.016708374	
1739282533565	0.020370483	
1739282533566	0.020980835	
1739282533567	0.013046265	
1739282533568	0.01159668	
1739282533569	0.012359619	
1739282533570	0.0074768066	
1739282533571	0.0060272217	
1739282533572	6.1035156E-4	
1739282533573	-0.0076293945	
1739282533574	-0.008087158	
1739282533575	-0.011749268	
1739282533576	-0.01663208	
1739282533577	-0.015411377	
1739282533578	-0.023422241	
1739282533579	-0.02281189	
1739282533580	-0.015563965	
1739282533581	-0.025253296	
1739282533582	-0.020980835	
1739282533583	-0.011672974	
1739282533584	-0.012359619	
1739282533585	-0.008239746	
1739282533586	-0.005874634	
1739282533587	3.0517578E-4	
1739282533588	-0.0038909912	
1739282533589	-0.009918213	
1739282533590	-0.001449585	
1739282533591	-0.0022125244	
1739282533592	0.0048828125	
1739282533593	0.009155273	
1739282533594	0.0025939941	
1739282533595	0.011520386	
1739282533596	0.016098022	
1739282533597	0.024642944	
1739282533598	0.037231445	
1739282533599	0.045394897	
1739282533600	0.051345825	
1739282533601	0.056381226	
1739282533602	0.047531128	
1739282533603	0.023040771	
1739282533604	-0.006790161	
1739282533605	-0.019073486	
1739282533606	-0.012130737	
1739282533607	0.002746582	
1739282533608	0.02494812	
1739282533609	0.019226074	
1739282533610	0.0012207031	
1739282533611	0.002746582	
1739282533612	-0.029678345	
1739282533613	-0.07659912	
1739282533614	-0.10887146	
1739282533615	-0.09346008	
1739282533616	-0.05088806	
1739282533617	-0.019607544	
1739282533618	-0.026626587	
1739282533619	-0.06767273	
1739282533620	-0.01663208	
1739282533621	0.047531128	
1739282533622	0.019607544	
1739282533623	0.0012207031	
1739282533624	-0.016326904	
1739282533625	-0.015945435	
1739282533626	0.026168823	
1739282533627	0.019302368	
1739282533628	0.020980835	
1739282533629	0.032958984	
1739282533630	0.026931763	
1739282533631	0.038146973	
1739282533632	0.0315094	
1739282533633	0.026473999	
1739282533634	0.023498535	
1739282533635	0.0048828125	
1739282533636	-0.0064086914	
1739282533637	-0.009689331	
1739282533638	-0.010604858	
1739282533639	-0.0034332275	
1739282533640	0.008239746	
1739282533641	0.007095337	
1739282533642	0.0024414062	
1739282533643	0.002746582	
1739282533644	0.0030517578	
1739282533645	0.013885498	
1739282533646	0.021514893	
1739282533647	3.8146973E-4	
1739282533648	-0.018157959	
1739282533649	-0.014953613	
1739282533650	-0.013961792	
1739282533651	-0.01121521	
1739282533652	-0.0090789795	
1739282533653	-0.009231567	
1739282533654	-0.0064849854	
1739282533655	-0.0051879883	
1739282533656	-0.0118255615	
1739282533657	-0.025100708	
1739282533658	-0.015716553	
1739282533659	-0.01876831	
1739282533660	-0.02532959	
1739282533661	0.032958984	
1739282533662	0.07537842	
1739282533663	0.056381226	
1739282533664	0.057144165	
1739282533665	0.0693512	
1739282533666	0.047454834	
1739282533667	0.015487671	
1739282533668	-0.0060272217	
1739282533669	-0.03364563	
1739282533670	-0.05317688	
1739282533671	-0.042877197	
1739282533672	-0.03265381	
1739282533673	-0.044631958	
1739282533674	-0.055999756	
1739282533675	-0.03845215	
1739282533676	2.2888184E-4	
1739282533677	0.017471313	
1739282533678	0.023651123	
1739282533679	0.021591187	
1739282533680	-0.0048828125	
1739282533681	-0.008239746	
1739282533682	-0.00289917	
1739282533683	9.918213E-4	
1739282533684	0.010681152	
1739282533685	-0.00793457	
1739282533686	-0.0033569336	
1739282533687	0.016555786	
1739282533688	0.019073486	
1739282533689	0.014953613	
1739282533690	-0.014266968	
1739282533691	-0.020828247	
1739282533692	-0.014801025	
1739282533693	-0.027542114	
1739282533694	-0.021438599	
1739282533695	-0.022964478	
1739282533696	-0.031814575	
1739282533697	-0.028533936	
1739282533698	-0.019836426	
1739282533699	0.042266846	
1739282533700	0.09994507	
1739282533701	0.09864807	
1739282533702	0.06439209	
1739282533703	0.0077819824	
1739282533704	-0.021896362	
1739282533705	-0.026779175	
1739282533706	-0.019302368	
1739282533707	-0.02609253	
1739282533708	-0.026626587	
1739282533709	-0.033493042	
1739282533710	-0.07110596	
1739282533711	-0.036087036	
1739282533712	0.04348755	
1739282533713	0.06210327	
1739282533714	0.01777649	
1739282533715	-0.047225952	
1739282533716	-0.073394775	
1739282533717	-0.08117676	
1739282533718	-0.079956055	
1739282533719	-0.039749146	
1739282533720	0.028457642	
1739282533721	0.08369446	
1739282533722	0.07408142	
1739282533723	0.07110596	
1739282533724	0.096588135	
1739282533725	0.07896423	
1739282533726	0.042419434	
1739282533727	-0.010910034	
1739282533728	-0.055541992	
1739282533729	-0.05027771	
1739282533730	-0.024871826	
1739282533731	0.0	
1739282533732	0.02494812	
1739282533733	0.025253296	
1739282533734	0.0065612793	
1739282533735	0.0075531006	
1739282533736	0.014724731	
1739282533737	0.020523071	
1739282533738	0.02532959	
1739282533739	0.026168823	
1739282533740	0.014266968	
1739282533741	0.00541687	
1739282533742	0.005874634	
1739282533743	-0.004425049	
1739282533744	-0.027389526	
1739282533745	-0.021362305	
1739282533746	0.0064086914	
1739282533747	-3.8146973E-4	
1739282533748	-0.007171631	
1739282533749	0.0	
1739282533750	-0.009841919	
1739282533751	-0.02029419	
1739282533752	-0.041809082	
1739282533753	-0.052490234	
1739282533754	-0.053710938	
1739282533755	-0.053863525	
1739282533756	-0.039520264	
1739282533757	-0.02670288	
1739282533758	-0.010757446	
1739282533759	-1.5258789E-4	
1739282533760	-0.010604858	
1739282533761	-0.010910034	
1739282533762	0.010070801	
1739282533763	0.020446777	
1739282533764	0.025863647	
1739282533765	0.03868103	
1739282533766	0.014266968	
1739282533767	-0.022506714	
1739282533768	-0.027770996	
1739282533769	-0.01083374	
1739282533770	-0.014343262	
1739282533771	-0.039901733	
1739282533772	0.009307861	
1739282533773	0.064086914	
1739282533774	0.04310608	
1739282533775	0.03791809	
1739282533776	0.035324097	
1739282533777	0.013885498	
1739282533778	-0.0033569336	
1739282533779	-0.018920898	
1739282533780	-0.008392334	
1739282533781	-0.0025177002	
1739282533782	0.0034332275	
1739282533783	0.028915405	
1739282533784	0.026016235	
1739282533785	0.017929077	
1739282533786	0.026931763	
1739282533787	0.016098022	
1739282533788	-0.0119018555	
1739282533789	-0.02571106	
1739282533790	-0.017471313	
1739282533791	-0.015640259	
1739282533792	-0.031433105	
1739282533793	-0.01876831	
1739282533794	0.018005371	
1739282533795	0.021972656	
1739282533796	0.02204895	
1739282533797	0.027389526	
1739282533798	0.01876831	
1739282533799	0.01876831	
1739282533800	0.015411377	
1739282533801	0.01449585	
1739282533802	0.010299683	
1739282533803	0.0012969971	
1739282533804	-0.02243042	
1739282533805	-0.058441162	
1739282533806	-0.0340271	
1739282533807	0.0019836426	
1739282533808	-0.020370483	
1739282533809	-0.051345825	
1739282533810	-0.045700073	
1739282533811	-0.010604858	
1739282533812	-0.0016021729	
1739282533813	-7.6293945E-5	
1739282533814	0.029525757	
1739282533815	0.04005432	
1739282533816	0.03211975	
1739282533817	0.016326904	
1739282533818	0.0119018555	
1739282533819	0.014572144	
1739282533820	0.0033569336	
1739282533821	-0.00289917	
1739282533822	-0.012741089	
1739282533823	-0.027313232	
1739282533824	-0.026550293	
1739282533825	-0.008544922	
1739282533826	0.0075531006	
1739282533827	0.00541687	
1739282533828	0.0025939941	
1739282533829	0.008468628	
1739282533830	5.340576E-4	
1739282533831	-0.01159668	
1739282533832	-0.002822876	
1739282533833	-4.5776367E-4	
1739282533834	-0.010070801	
1739282533835	-0.010757446	
1739282533836	-0.010375977	
1739282533837	-0.0015258789	
1739282533838	0.007171631	
1739282533839	0.009765625	
1739282533840	0.014190674	
1739282533841	0.0019836426	
1739282533842	-0.014190674	
1739282533843	-0.012588501	
1739282533844	-0.009613037	
1739282533845	-0.007019043	
1739282533846	0.0019836426	
1739282533847	0.0035095215	
1739282533848	0.0064086914	
1739282533849	0.016021729	
1739282533850	0.01663208	
1739282533851	0.013122559	
1739282533852	0.012664795	
1739282533853	0.014343262	
1739282533854	0.025558472	
1739282533855	0.028457642	
1739282533856	5.340576E-4	
1739282533857	-0.026245117	
1739282533858	-0.045776367	
1739282533859	-0.06813049	
1739282533860	-0.066223145	
1739282533861	-0.020599365	
1739282533862	0.02128601	
1739282533863	0.019302368	
1739282533864	0.023727417	
1739282533865	0.036010742	
1739282533866	0.03730774	
1739282533867	0.05355835	
1739282533868	0.065460205	
1739282533869	0.04447937	
1739282533870	0.01159668	
1739282533871	0.009918213	
1739282533872	0.013809204	
1739282533873	-0.0038909912	
1739282533874	-0.03227234	
1739282533875	-0.0869751	
1739282533876	-0.111083984	
1739282533877	-0.04043579	
1739282533878	0.03677368	
1739282533879	0.0390625	
1739282533880	0.035476685	
1739282533881	0.026626587	
1739282533882	-0.018157959	
1739282533883	-0.030899048	
1739282533884	-0.03211975	
1739282533885	-0.059280396	
1739282533886	-0.06492615	
1739282533887	-0.01625061	
1739282533888	0.048446655	
1739282533889	0.064468384	
1739282533890	0.054244995	
1739282533891	0.03211975	
1739282533892	-0.00541687	
1739282533893	-0.015563965	
1739282533894	-0.030136108	
1739282533895	-0.028076172	
1739282533896	0.042037964	
1739282533897	0.0642395	
1739282533898	-0.008773804	
1739282533899	-0.07232666	
1739282533900	-0.057754517	
1739282533901	-0.011291504	
1739282533902	0.020141602	
1739282533903	0.02960205	
1739282533904	-0.013504028	
1739282533905	-0.026168823	
1739282533906	0.01411438	
1739282533907	0.043563843	
1739282533908	0.04951477	
1739282533909	7.6293945E-5	
1739282533910	-0.037765503	
1739282533911	-0.013504028	
1739282533912	0.0060272217	
1739282533913	8.392334E-4	
1739282533914	-3.0517578E-4	
1739282533915	0.00541687	
1739282533916	0.018005371	
1739282533917	0.033111572	
1739282533918	0.041503906	
1739282533919	0.03211975	
1739282533920	0.005645752	
1739282533921	-0.015792847	
1739282533922	-0.032043457	
1739282533923	-0.052871704	
1739282533924	-0.05508423	
1739282533925	-0.01373291	
1739282533926	0.016860962	
1739282533927	0.013198853	
1739282533928	0.023117065	
1739282533929	0.03807068	
1739282533930	0.055923462	
1739282533931	0.06752014	
1739282533932	0.041732788	
1739282533933	0.015029907	
1739282533934	-0.024337769	
1739282533935	-0.082473755	
1739282533936	-0.094451904	
1739282533937	-0.05241394	
1739282533938	0.0023651123	
1739282533939	0.026550293	
1739282533940	0.011978149	
1739282533941	-0.016479492	
1739282533942	-0.028839111	
1739282533943	-0.014419556	
1739282533944	0.010986328	
1739282533945	0.015411377	
1739282533946	-0.01953125	
1739282533947	-0.07637024	
1739282533948	-0.118255615	
1739282533949	-0.09223938	
1739282533950	-0.01953125	
1739282533951	0.008239746	
1739282533952	-0.029220581	
1739282533953	-0.03807068	
1739282533954	0.02204895	
1739282533955	0.067596436	
1739282533956	0.07019043	
1739282533957	0.07774353	
1739282533958	0.07904053	
1739282533959	0.081329346	
1739282533960	0.08720398	
1739282533961	0.07926941	
1739282533962	0.03730774	
1739282533963	-0.0016784668	
1739282533964	0.021362305	
1739282533965	-7.6293945E-5	
1739282533966	-0.04989624	
1739282533967	-0.041732788	
1739282533968	-0.0104522705	
1739282533969	0.010986328	
1739282533970	-0.0146484375	
1739282533971	-0.0035095215	
1739282533972	0.051345825	
1739282533973	0.046920776	
1739282533974	0.010986328	
1739282533975	-0.004501343	
1739282533976	-0.03173828	
1739282533977	-0.08026123	
1739282533978	-0.12138367	
1739282533979	-0.13313293	
1739282533980	-0.048828125	
1739282533981	0.048675537	
1739282533982	0.017852783	
1739282533983	-0.028533936	
1739282533984	-0.009689331	
1739282533985	0.03677368	
1739282533986	0.049057007	
1739282533987	9.918213E-4	
1739282533988	-0.022964478	
1739282533989	-0.026321411	
1739282533990	-0.036621094	
1739282533991	-0.031814575	
1739282533992	-0.01159668	
1739282533993	0.038757324	
1739282533994	0.08682251	
1739282533995	0.12138367	
1739282533996	0.1525116	
1739282533997	0.14305115	
1739282533998	0.11016846	
1739282533999	0.07583618	
1739282534000	0.028839111	
1739282534001	-0.008163452	
1739282534002	-0.03883362	
1739282534003	-0.06484985	
1739282534004	-0.08956909	
1739282534005	-0.12023926	
1739282534006	-0.10406494	
1739282534007	-0.05836487	
1739282534008	-0.072631836	
1739282534009	-0.081329346	
1739282534010	-0.0730896	
1739282534011	-0.08598328	
1739282534012	-0.08583069	
1739282534013	-0.047225952	
1739282534014	0.045394897	
1739282534015	0.05508423	
1739282534016	-0.011978149	
1739282534017	-0.027236938	
1739282534018	-0.008621216	
1739282534019	0.022583008	
1739282534020	0.050201416	
1739282534021	0.04837036	
1739282534022	0.030288696	
1739282534023	0.0033569336	
1739282534024	0.0062561035	
1739282534025	0.03845215	
1739282534026	0.061950684	
1739282534027	0.07865906	
1739282534028	0.019073486	
1739282534029	-0.063934326	
1739282534030	-0.032730103	
1739282534031	0.024032593	
1739282534032	0.03616333	
1739282534033	0.06843567	
1739282534034	0.07896423	
1739282534035	0.053024292	
1739282534036	0.050811768	
1739282534037	0.053024292	
1739282534038	0.07347107	
1739282534039	0.07408142	
1739282534040	0.03387451	
1739282534041	0.0076293945	
1739282534042	-0.025939941	
1739282534043	-0.045547485	
1739282534044	-0.03807068	
1739282534045	-0.06034851	
1739282534046	-0.09277344	
1739282534047	-0.14160156	
1739282534048	-0.17051697	
1739282534049	-0.14007568	
1739282534050	-0.13168335	
1739282534051	-0.15388489	
1739282534052	-0.11985779	
1739282534053	-0.069503784	
1739282534054	-0.020904541	
1739282534055	0.029220581	
1739282534056	0.04386902	
1739282534057	0.056915283	
1739282534058	0.0693512	
1739282534059	0.08270264	
1739282534060	0.10040283	
1739282534061	0.11047363	
1739282534062	0.11672974	
1739282534063	0.10505676	
1739282534064	0.092926025	
1739282534065	0.08369446	
1739282534066	0.06942749	
1739282534067	0.04890442	
1739282534068	0.02861023	
1739282534069	0.033721924	
1739282534070	0.026397705	
1739282534071	-6.1035156E-4	
1739282534072	-0.008850098	
1739282534073	-0.012435913	
1739282534074	-0.022354126	
1739282534075	-0.051727295	
1739282534076	-0.087509155	
1739282534077	-0.1084137	
1739282534078	-0.13015747	
1739282534079	-0.13252258	
1739282534080	-0.08781433	
1739282534081	-0.040740967	
1739282534082	-0.015640259	
1739282534083	0.0019073486	
1739282534084	0.021591187	
1739282534085	0.062942505	
1739282534086	0.102386475	
1739282534087	0.1385498	
1739282534088	0.16746521	
1739282534089	0.17021179	
1739282534090	0.15403748	
1739282534091	0.108795166	
1739282534092	0.06271362	
1739282534093	0.034332275	
1739282534094	-0.0075531006	
1739282534095	-0.028152466	
1739282534096	-0.050430298	
1739282534097	-0.07034302	
1739282534098	-0.09025574	
1739282534099	-0.11390686	
1739282534100	-0.1222229	
1739282534101	-0.13786316	
1739282534102	-0.1410675	
1739282534103	-0.12886047	
1739282534104	-0.119400024	
1739282534105	-0.10520935	
1739282534106	-0.0881958	
1739282534107	-0.06668091	
1739282534108	-0.045013428	
1739282534109	-0.030593872	
1739282534110	-0.022125244	
1739282534111	-0.012435913	
1739282534112	0.00289917	
1739282534113	0.020828247	
1739282534114	0.039520264	
1739282534115	0.05645752	
1739282534116	0.065078735	
1739282534117	0.071640015	
1739282534118	0.08041382	
1739282534119	0.09651184	
1739282534120	0.10269165	
1739282534121	0.08659363	
1739282534122	0.078201294	
1739282534123	0.07041931	
1739282534124	0.059051514	
1739282534125	0.04814148	
1739282534126	0.034942627	
1739282534127	0.028839111	
1739282534128	0.018920898	
1739282534129	0.0077819824	
1739282534130	0.0029754639	
1739282534131	-0.0022888184	
1739282534132	-0.008468628	
1739282534133	-0.0132751465	
1739282534134	-0.00831604	
1739282534135	-0.009689331	
1739282534136	-0.023040771	
1739282534137	-0.034942627	
1739282534138	-0.042495728	
1739282534139	-0.03982544	
1739282534140	-0.029907227	
1739282534141	-0.009918213	
1739282534142	0.0012207031	
1739282534143	-0.0050354004	
1739282534144	-0.0038909912	
1739282534145	-0.0029754639	
1739282534146	0.005340576	
1739282534147	0.032196045	
1739282534148	0.04333496	
1739282534149	0.053634644	
1739282534150	0.056915283	
1739282534151	0.041809082	
1739282534152	0.041809082	
1739282534153	0.018615723	
1739282534154	-0.036849976	
1739282534155	-0.07865906	
1739282534156	-0.1083374	
1739282534157	-0.13557434	
1739282534158	-0.13641357	
1739282534159	-0.12794495	
1739282534160	-0.12687683	
1739282534161	-0.108947754	
1739282534162	-0.08522034	
1739282534163	-0.07621765	
1739282534164	-0.049819946	
1739282534165	-0.01914978	
1739282534166	0.0046539307	
1739282534167	0.036315918	
1739282534168	0.06561279	
1739282534169	0.08018494	
1739282534170	0.07499695	
1739282534171	0.08331299	
1739282534172	0.083465576	
1739282534173	0.075149536	
1739282534174	0.07896423	
1739282534175	0.07896423	
1739282534176	0.08644104	
1739282534177	0.095062256	
1739282534178	0.07759094	
1739282534179	0.06843567	
1739282534180	0.07232666	
1739282534181	0.052871704	
1739282534182	0.02571106	
1739282534183	0.0018310547	
1739282534184	-0.011444092	
1739282534185	-0.0132751465	
1739282534186	-0.017547607	
1739282534187	-0.025405884	
1739282534188	-0.027236938	
1739282534189	-0.0289917	
1739282534190	-0.03616333	
1739282534191	-0.032196045	
1739282534192	-0.031585693	
1739282534193	-0.032806396	
1739282534194	-0.03807068	
1739282534195	-0.047607422	
1739282534196	-0.034866333	
1739282534197	-0.017623901	
1739282534198	-0.023651123	
1739282534199	-0.02166748	
1739282534200	-0.006866455	
1739282534201	-0.005493164	
1739282534202	0.0022888184	
1739282534203	0.017471313	
1739282534204	0.016784668	
1739282534205	0.01449585	
1739282534206	0.022201538	
1739282534207	0.021362305	
1739282534208	0.011062622	
1739282534209	0.0074768066	
1739282534210	0.0063323975	
1739282534211	-0.011672974	
1739282534212	-0.01777649	
1739282534213	-0.019454956	
1739282534214	-0.024261475	
1739282534215	-0.025558472	
1739282534216	-0.031433105	
1739282534217	-0.03807068	
1739282534218	-0.051193237	
1739282534219	-0.0466156	
1739282534220	-0.02998352	
1739282534221	-0.03288269	
1739282534222	-0.028533936	
1739282534223	-0.015258789	
1739282534224	-0.005493164	
1739282534225	0.0048065186	
1739282534226	-0.0034332275	
1739282534227	-0.016479492	
1739282534228	-0.007247925	
1739282534229	0.016784668	
1739282534230	0.033187866	
1739282534231	0.036468506	
1739282534232	0.04486084	
1739282534233	0.048446655	
1739282534234	0.06309509	
1739282534235	0.07965088	
1739282534236	0.073013306	
1739282534237	0.04447937	
1739282534238	0.005645752	
1739282534239	0.009384155	
1739282534240	0.013580322	
1739282534241	-0.033493042	
1739282534242	-0.03555298	
1739282534243	-0.00579834	
1739282534244	0.019989014	
1739282534245	0.038146973	
1739282534246	0.017623901	
1739282534247	0.012359619	
1739282534248	-0.038146973	
1739282534249	-0.06248474	
1739282534250	0.023345947	
1739282534251	0.02243042	
1739282534252	-0.017929077	
1739282534253	-0.0011444092	
1739282534254	0.0020599365	
1739282534255	0.001373291	
1739282534256	-0.014801025	
1739282534257	-0.01838684	
1739282534258	-0.02029419	
1739282534259	-0.04058838	
1739282534260	-0.027389526	
1739282534261	-0.010070801	
1739282534262	-9.1552734E-4	
1739282534263	0.005874634	
1739282534264	0.008850098	
1739282534265	0.016326904	
1739282534266	0.014724731	
1739282534267	0.0045776367	
1739282534268	-0.009231567	
1739282534269	-0.0065612793	
1739282534270	0.0064849854	
1739282534271	0.020141602	
1739282534272	0.021209717	
1739282534273	-0.002822876	
1739282534274	-0.02357483	
1739282534275	-0.06752014	
1739282534276	-0.12619019	
1739282534277	-0.101242065	
1739282534278	-0.012435913	
1739282534279	0.018615723	
1739282534280	6.866455E-4	
1739282534281	6.866455E-4	
1739282534282	0.0049591064	
1739282534283	0.0090789795	
1739282534284	0.026550293	
1739282534285	0.036239624	
1739282534286	0.035705566	
1739282534287	0.03135681	
1739282534288	0.029678345	
1739282534289	0.04310608	
1739282534290	0.047225952	
1739282534291	0.03288269	
1739282534292	0.022506714	
1739282534293	0.03211975	
1739282534294	0.044021606	
1739282534295	0.030288696	
1739282534296	-9.918213E-4	
1739282534297	-0.0049591064	
1739282534298	0.004196167	
1739282534299	-0.0022125244	
1739282534300	0.0017547607	
1739282534301	-9.918213E-4	
1739282534302	-0.01373291	
1739282534303	-0.026931763	
1739282534304	-0.05706787	
1739282534305	-0.07698059	
1739282534306	-0.05027771	
1739282534307	-0.010223389	
1739282534308	0.018081665	
1739282534309	0.06034851	
1739282534310	0.07598877	
1739282534311	0.070114136	
1739282534312	0.049743652	
1739282534313	-7.6293945E-5	
1739282534314	-0.001373291	
1739282534315	-0.010757446	
1739282534316	-0.06919861	
1739282534317	-0.07652283	
1739282534318	-0.030593872	
1739282534319	-0.014572144	
1739282534320	-0.027313232	
1739282534321	-0.03807068	
1739282534322	-0.083236694	
1739282534323	-0.051345825	
1739282534324	0.048599243	
1739282534325	-0.039901733	
1739282534326	-0.11695862	
1739282534327	0.035476685	
1739282534328	0.083465576	
1739282534329	-0.015411377	
1739282534330	-0.03425598	
1739282534331	-0.011291504	
1739282534332	0.034713745	
1739282534333	0.05355835	
1739282534334	-0.011978149	
1739282534335	-0.037994385	
1739282534336	0.010604858	
1739282534337	0.0390625	
1739282534338	0.07614136	
1739282534339	0.097579956	
1739282534340	0.012817383	
1739282534341	-0.026473999	
1739282534342	0.044174194	
1739282534343	0.054626465	
1739282534344	0.04096985	
1739282534345	0.0491333	
1739282534346	-0.004043579	
1739282534347	-0.03250122	
1739282534348	-0.0146484375	
1739282534349	0.012359619	
1739282534350	0.046081543	
1739282534351	0.016708374	
1739282534352	-4.5776367E-4	
1739282534353	0.021820068	
1739282534354	0.0031280518	
1739282534355	-0.07423401	
1739282534356	-0.16868591	
1739282534357	-0.13008118	
1739282534358	-0.031967163	
1739282534359	-0.0051879883	
1739282534360	0.0415802	
1739282534361	0.06568909	
1739282534362	0.04333496	
1739282534363	0.04638672	
1739282534364	0.0090789795	
1739282534365	-0.059051514	
1739282534366	-0.0717926	
1739282534367	-0.057373047	
1739282534368	-0.057144165	
1739282534369	-0.03593445	
1739282534370	0.040359497	
1739282534371	0.1487732	
1739282534372	0.15830994	
1739282534373	0.080947876	
1739282534374	0.052871704	
1739282534375	3.8146973E-4	
1739282534376	-0.05065918	
1739282534377	-0.047912598	
1739282534378	-0.050201416	
1739282534379	0.05760193	
1739282534380	0.09559631	
1739282534381	-0.0132751465	
1739282534382	-0.021972656	
1739282534383	-0.10154724	
1739282534384	-0.17364502	
1739282534385	-0.11734009	
1739282534386	-0.05996704	
1739282534387	0.03982544	
1739282534388	-0.011062622	
1739282534389	-0.1538086	
1739282534390	-0.18936157	
1739282534391	-0.08377075	
1739282534392	0.072250366	
1739282534393	0.10055542	
1739282534394	0.12130737	
1739282534395	0.10116577	
1739282534396	0.030975342	
1739282534397	0.021972656	
1739282534398	-0.01663208	
1739282534399	0.014343262	
1739282534400	0.13267517	
1739282534401	0.157547	
1739282534402	0.1184845	
1739282534403	0.09819031	
1739282534404	0.064315796	
1739282534405	-0.008239746	
1739282534406	-0.02166748	
1739282534407	0.045547485	
1739282534408	0.052108765	
1739282534409	0.010528564	
1739282534410	-0.004425049	
1739282534411	0.017929077	
1739282534412	0.06278992	
1739282534413	-0.082092285	
1739282534414	-0.27435303	
1739282534415	-0.23918152	
1739282534416	-0.23078918	
1739282534417	-0.17700195	
1739282534418	-3.8146973E-4	
1739282534419	0.05126953	
1739282534420	0.11695862	
1739282534421	0.14328003	
1739282534422	0.004348755	
1739282534423	-0.037002563	
1739282534424	0.037612915	
1739282534425	0.051727295	
1739282534426	-0.026473999	
1739282534427	-0.088272095	
1739282534428	-0.04562378	
1739282534429	0.03364563	
1739282534430	0.12054443	
1739282534431	0.16693115	
1739282534432	0.10383606	
1739282534433	0.019454956	
1739282534434	-0.029449463	
1739282534435	-0.097351074	
1739282534436	-0.10902405	
1739282534437	-0.001449585	
1739282534438	0.043182373	
1739282534439	0.031280518	
1739282534440	0.023345947	
1739282534441	-0.053329468	
1739282534442	-0.044937134	
1739282534443	0.024719238	
1739282534444	0.025863647	
1739282534445	0.038146973	
1739282534446	0.025558472	
1739282534447	0.010604858	
1739282534448	0.025863647	
1739282534449	0.018615723	
1739282534450	0.038375854	
1739282534451	0.06637573	
1739282534452	0.08506775	
1739282534453	0.051498413	
1739282534454	-0.046463013	
1739282534455	-0.058670044	
1739282534456	-0.05104065	
1739282534457	-0.10215759	
1739282534458	-0.14633179	
1739282534459	-0.19264221	
1739282534460	-0.119781494	
1739282534461	-0.012283325	
1739282534462	0.019454956	
1739282534463	0.07980347	
1739282534464	0.079574585	
1739282534465	0.044937134	
1739282534466	0.03692627	
1739282534467	0.022354126	
1739282534468	0.032577515	
1739282534469	0.04005432	
1739282534470	0.02998352	
1739282534471	-0.036849976	
1739282534472	-0.11657715	
1739282534473	-0.009765625	
1739282534474	0.11100769	
1739282534475	0.033416748	
1739282534476	-0.015716553	
1739282534477	-0.0063323975	
1739282534478	-0.04257202	
1739282534479	-0.04928589	
1739282534480	-0.00831604	
1739282534481	0.05126953	
1739282534482	0.10185242	
1739282534483	0.079956055	
1739282534484	0.021438599	
1739282534485	-0.004272461	
1739282534486	-0.03112793	
1739282534487	-0.03517151	
1739282534488	-0.009536743	
1739282534489	-0.024490356	
1739282534490	-0.057907104	
1739282534491	-0.05836487	
1739282534492	-0.02670288	
1739282534493	0.031814575	
1739282534494	0.10498047	
1739282534495	0.1435852	
1739282534496	0.07606506	
1739282534497	-0.027236938	
1739282534498	-0.09109497	
1739282534499	-0.13305664	
1739282534500	-0.056991577	
1739282534501	0.01701355	
1739282534502	-0.023498535	
1739282534503	0.018081665	
1739282534504	0.04714966	
1739282534505	-0.002746582	
1739282534506	0.04196167	
1739282534507	0.045776367	
1739282534508	-0.021896362	
1739282534509	-0.028686523	
1739282534510	-0.008239746	
1739282534511	0.010681152	
1739282534512	-0.004425049	
1739282534513	-0.027160645	
