# OpenSignals Text File Format
# {"00:80:E1:26:A1:B0":{"sensor":["EMG"],"device name":"00:80:E1:26:A1:B0","column":["timestamp","EMG"],"sync interval":2,"time":"10:40:44","comments":"","keywords":"","device connection":"BLE00:80:E1:26:A1:B0","channels":[0],"date":"2024-12-09","mode":0,"digital IO":[],"firmware version":259,"device":"musclebanplux","position":0,"sampling rate":1000,"label":["EMG"],"resolution":[16],"special":[{}],"sleeve color":["UNKNOWN"]}}
# EndOfHeader
1733737245436	-0.0011444092	
1733737245437	-0.007019043	
1733737245438	-0.010147095	
1733737245439	-0.004119873	
1733737245440	0.0076293945	
1733737245441	0.01411438	
1733737245442	0.009460449	
1733737245443	0.0047302246	
1733737245444	7.6293945E-4	
1733737245445	-3.0517578E-4	
1733737245446	0.0032043457	
1733737245447	-3.0517578E-4	
1733737245448	-8.392334E-4	
1733737245449	2.2888184E-4	
1733737245450	7.6293945E-4	
1733737245451	0.0012969971	
1733737245452	-0.0017547607	
1733737245453	-1.5258789E-4	
1733737245454	-0.002746582	
1733737245455	-0.007247925	
1733737245456	-0.0018310547	
1733737245457	0.0035858154	
1733737245458	9.1552734E-4	
1733737245459	0.001449585	
1733737245460	0.0011444092	
1733737245461	-0.0029754639	
1733737245462	-9.918213E-4	
1733737245463	-0.0018310547	
1733737245464	-4.5776367E-4	
1733737245465	-0.0018310547	
1733737245466	-0.005645752	
1733737245467	8.392334E-4	
1733737245468	0.0010681152	
1733737245469	5.340576E-4	
1733737245470	0.0029754639	
1733737245471	-0.0021362305	
1733737245472	-0.0050354004	
1733737245473	-0.0015258789	
1733737245474	0.0016021729	
1733737245475	0.0022888184	
1733737245476	0.0032806396	
1733737245477	0.004501343	
1733737245478	0.0025177002	
1733737245479	-0.001373291	
1733737245480	-0.0023651123	
1733737245481	8.392334E-4	
1733737245482	0.002746582	
1733737245483	0.0017547607	
1733737245484	6.1035156E-4	
1733737245485	9.1552734E-4	
1733737245486	7.6293945E-5	
1733737245487	-5.340576E-4	
1733737245488	0.0033569336	
1733737245489	0.00289917	
1733737245490	-4.5776367E-4	
1733737245491	-0.001373291	
1733737245492	-0.0046539307	
1733737245493	-0.0016784668	
1733737245494	8.392334E-4	
1733737245495	-0.0020599365	
1733737245496	-3.0517578E-4	
1733737245497	-0.0036621094	
1733737245498	-0.0051116943	
1733737245499	9.1552734E-4	
1733737245500	0.0022125244	
1733737245501	0.0010681152	
1733737245502	-0.00289917	
1733737245503	-0.0024414062	
1733737245504	0.0046539307	
1733737245505	0.0045776367	
1733737245506	6.1035156E-4	
1733737245507	-0.0012207031	
1733737245508	-0.0012969971	
1733737245509	0.00289917	
1733737245510	0.00289917	
1733737245511	-9.918213E-4	
1733737245512	-0.0011444092	
1733737245513	-0.0022888184	
1733737245514	-0.003967285	
1733737245515	-0.005340576	
1733737245516	-0.0074768066	
1733737245517	-0.0074005127	
1733737245518	-0.004272461	
1733737245519	0.001373291	
1733737245520	0.00793457	
1733737245521	0.01663208	
1733737245522	0.015029907	
1733737245523	0.0050354004	
1733737245524	0.0030517578	
1733737245525	0.0019073486	
1733737245526	5.340576E-4	
1733737245527	-0.0025939941	
1733737245528	-0.00579834	
1733737245529	-0.0063323975	
1733737245530	-0.0048065186	
1733737245531	-0.0035095215	
1733737245532	-0.0063323975	
1733737245533	7.6293945E-4	
1733737245534	0.0051879883	
1733737245535	-2.2888184E-4	
1733737245536	-0.0025939941	
1733737245537	-0.0048065186	
1733737245538	-0.0037384033	
1733737245539	-0.0045776367	
1733737245540	-0.0059509277	
1733737245541	5.340576E-4	
1733737245542	0.0050354004	
1733737245543	0.0076293945	
1733737245544	0.00541687	
1733737245545	3.8146973E-4	
1733737245546	-2.2888184E-4	
1733737245547	-0.001449585	
1733737245548	-7.6293945E-4	
1733737245549	-0.001449585	
1733737245550	-0.001449585	
1733737245551	0.002746582	
1733737245552	0.0037384033	
1733737245553	0.0020599365	
1733737245554	-6.1035156E-4	
1733737245555	-0.0021362305	
1733737245556	0.001373291	
1733737245557	0.0051116943	
1733737245558	0.0015258789	
1733737245559	-0.0012969971	
1733737245560	0.0010681152	
1733737245561	-0.0024414062	
1733737245562	-0.0037384033	
1733737245563	-6.866455E-4	
1733737245564	-5.340576E-4	
1733737245565	-0.0012207031	
1733737245566	-0.0025177002	
1733737245567	-4.5776367E-4	
1733737245568	9.1552734E-4	
1733737245569	0.001449585	
1733737245570	0.0032043457	
1733737245571	0.0018310547	
1733737245572	0.0012207031	
1733737245573	0.0016784668	
1733737245574	-0.002822876	
1733737245575	-0.007019043	
1733737245576	-0.004348755	
1733737245577	9.1552734E-4	
1733737245578	0.0035095215	
1733737245579	-7.6293945E-4	
1733737245580	-0.0024414062	
1733737245581	0.0016021729	
1733737245582	0.0029754639	
1733737245583	0.0034332275	
1733737245584	5.340576E-4	
1733737245585	-0.0012969971	
1733737245586	-2.2888184E-4	
1733737245587	-0.0010681152	
1733737245588	1.5258789E-4	
1733737245589	2.2888184E-4	
1733737245590	-7.6293945E-4	
1733737245591	-0.0017547607	
1733737245592	-0.0036621094	
1733737245593	-3.8146973E-4	
1733737245594	0.003967285	
1733737245595	0.0021362305	
1733737245596	-0.0012969971	
1733737245597	-0.002670288	
1733737245598	-0.0020599365	
1733737245599	3.0517578E-4	
1733737245600	1.5258789E-4	
1733737245601	-0.002822876	
1733737245602	-0.0036621094	
1733737245603	-7.6293945E-5	
1733737245604	-9.918213E-4	
1733737245605	-0.004425049	
1733737245606	-4.5776367E-4	
1733737245607	0.007171631	
1733737245608	0.009994507	
1733737245609	0.005264282	
1733737245610	0.004272461	
1733737245611	9.1552734E-4	
1733737245612	-0.00289917	
1733737245613	0.0033569336	
1733737245614	0.005264282	
1733737245615	0.0032806396	
1733737245616	-0.0016784668	
1733737245617	-0.0051879883	
1733737245618	-0.00289917	
1733737245619	-2.2888184E-4	
1733737245620	0.0019073486	
1733737245621	-7.6293945E-4	
1733737245622	-0.0025939941	
1733737245623	-0.0035095215	
1733737245624	-0.00579834	
1733737245625	-0.004272461	
1733737245626	-0.0032043457	
1733737245627	-0.005264282	
1733737245628	-0.0031280518	
1733737245629	-6.1035156E-4	
1733737245630	-0.005645752	
1733737245631	-0.0066375732	
1733737245632	-0.0024414062	
1733737245633	0.0	
1733737245634	0.0017547607	
1733737245635	0.009155273	
1733737245636	0.01586914	
1733737245637	0.009536743	
1733737245638	0.004272461	
1733737245639	0.0010681152	
1733737245640	-0.0051116943	
1733737245641	-0.0063323975	
1733737245642	-3.0517578E-4	
1733737245643	0.006713867	
1733737245644	0.005722046	
1733737245645	0.004196167	
1733737245646	0.002822876	
1733737245647	-0.004425049	
1733737245648	-0.005264282	
1733737245649	-9.1552734E-4	
1733737245650	-8.392334E-4	
1733737245651	0.0011444092	
1733737245652	-0.0015258789	
1733737245653	-0.0022888184	
1733737245654	0.0035095215	
1733737245655	-7.6293945E-4	
1733737245656	-0.004348755	
1733737245657	-0.004119873	
1733737245658	-0.0050354004	
1733737245659	-0.0038909912	
1733737245660	-0.0047302246	
1733737245661	3.0517578E-4	
1733737245662	0.0064086914	
1733737245663	0.004272461	
1733737245664	-0.0015258789	
1733737245665	-0.0032043457	
1733737245666	0.002822876	
1733737245667	0.0073242188	
1733737245668	0.0030517578	
1733737245669	-0.0035858154	
1733737245670	-0.0074768066	
1733737245671	-0.008850098	
1733737245672	-0.0050354004	
1733737245673	1.5258789E-4	
1733737245674	0.0025939941	
1733737245675	0.0061798096	
1733737245676	0.007019043	
1733737245677	0.0051879883	
1733737245678	0.0031280518	
1733737245679	0.0012969971	
1733737245680	0.0019836426	
1733737245681	-9.1552734E-4	
1733737245682	-9.918213E-4	
1733737245683	3.0517578E-4	
1733737245684	-0.0016021729	
1733737245685	7.6293945E-4	
1733737245686	-0.0022888184	
1733737245687	-0.005340576	
1733737245688	-0.0032806396	
1733737245689	-0.001373291	
1733737245690	0.002822876	
1733737245691	0.0021362305	
1733737245692	-2.2888184E-4	
1733737245693	-3.8146973E-4	
1733737245694	2.2888184E-4	
1733737245695	0.0016784668	
1733737245696	0.0022125244	
1733737245697	0.0015258789	
1733737245698	-0.0077056885	
1733737245699	-0.013809204	
1733737245700	-0.010986328	
1733737245701	-0.009231567	
1733737245702	0.00289917	
1733737245703	0.011062622	
1733737245704	0.010299683	
1733737245705	0.015563965	
1733737245706	0.01663208	
1733737245707	0.0118255615	
1733737245708	0.001373291	
1733737245709	-0.0035858154	
1733737245710	-0.0051116943	
1733737245711	-0.0051879883	
1733737245712	-0.0011444092	
1733737245713	-0.009689331	
1733737245714	-0.009613037	
1733737245715	-0.0050354004	
1733737245716	-0.008163452	
1733737245717	-0.0011444092	
1733737245718	-3.0517578E-4	
1733737245719	-0.001449585	
1733737245720	0.0020599365	
1733737245721	0.004272461	
1733737245722	0.012512207	
1733737245723	0.008392334	
1733737245724	-0.0024414062	
1733737245725	-0.0033569336	
1733737245726	-0.008850098	
1733737245727	-0.0025939941	
1733737245728	0.0118255615	
1733737245729	0.0012969971	
1733737245730	-0.0021362305	
1733737245731	0.002670288	
1733737245732	-0.0019836426	
1733737245733	0.0019073486	
1733737245734	-0.0018310547	
1733737245735	-0.0076293945	
1733737245736	-0.0047302246	
1733737245737	3.0517578E-4	
1733737245738	0.0029754639	
1733737245739	-0.003967285	
1733737245740	-0.005264282	
1733737245741	0.0017547607	
1733737245742	0.0019836426	
1733737245743	-2.2888184E-4	
1733737245744	0.0030517578	
1733737245745	0.0023651123	
1733737245746	-0.002670288	
1733737245747	-0.004348755	
1733737245748	-0.00289917	
1733737245749	0.0032806396	
1733737245750	0.0036621094	
1733737245751	-0.0016021729	
1733737245752	-4.5776367E-4	
1733737245753	0.0032806396	
1733737245754	0.0051116943	
1733737245755	0.0015258789	
1733737245756	-1.5258789E-4	
1733737245757	0.004425049	
1733737245758	5.340576E-4	
1733737245759	-0.004043579	
1733737245760	7.6293945E-4	
1733737245761	0.0015258789	
1733737245762	0.001449585	
1733737245763	0.0035858154	
1733737245764	-0.0011444092	
1733737245765	-0.004272461	
1733737245766	-0.0019073486	
1733737245767	-0.001373291	
1733737245768	-0.0033569336	
1733737245769	-0.0051116943	
1733737245770	-0.0033569336	
1733737245771	-6.866455E-4	
1733737245772	0.0038146973	
1733737245773	0.005874634	
1733737245774	0.0029754639	
1733737245775	9.1552734E-4	
1733737245776	4.5776367E-4	
1733737245777	0.0018310547	
1733737245778	4.5776367E-4	
1733737245779	-8.392334E-4	
1733737245780	2.2888184E-4	
1733737245781	-0.0021362305	
1733737245782	-3.8146973E-4	
1733737245783	0.0033569336	
1733737245784	-0.0012207031	
1733737245785	-0.0036621094	
1733737245786	-6.1035156E-4	
1733737245787	-7.6293945E-5	
1733737245788	-5.340576E-4	
1733737245789	-0.0032806396	
1733737245790	-0.0046539307	
1733737245791	-0.002670288	
1733737245792	4.5776367E-4	
1733737245793	0.0011444092	
1733737245794	-0.0023651123	
1733737245795	0.001373291	
1733737245796	0.002670288	
1733737245797	-0.0016021729	
1733737245798	5.340576E-4	
1733737245799	6.866455E-4	
1733737245800	-0.0016021729	
1733737245801	-0.0022888184	
1733737245802	0.00289917	
1733737245803	0.007095337	
1733737245804	0.001449585	
1733737245805	-1.5258789E-4	
1733737245806	0.0016021729	
1733737245807	-2.2888184E-4	
1733737245808	-4.5776367E-4	
1733737245809	-7.6293945E-5	
1733737245810	-6.866455E-4	
1733737245811	-0.002746582	
1733737245812	-8.392334E-4	
1733737245813	0.004196167	
1733737245814	0.0033569336	
1733737245815	-2.2888184E-4	
1733737245816	-0.0050354004	
1733737245817	-0.008468628	
1733737245818	-0.005569458	
1733737245819	0.0012969971	
1733737245820	0.00579834	
1733737245821	0.0051879883	
1733737245822	0.0065612793	
1733737245823	0.00579834	
1733737245824	-0.0018310547	
1733737245825	-0.0015258789	
1733737245826	0.0031280518	
1733737245827	-6.866455E-4	
1733737245828	-0.0051879883	
1733737245829	-0.0051879883	
1733737245830	-6.1035156E-4	
1733737245831	-7.6293945E-5	
1733737245832	-0.0034332275	
1733737245833	-1.5258789E-4	
1733737245834	-8.392334E-4	
1733737245835	-0.00289917	
1733737245836	0.0016784668	
1733737245837	9.918213E-4	
1733737245838	-0.0010681152	
1733737245839	0.0012969971	
1733737245840	0.0025939941	
1733737245841	1.5258789E-4	
1733737245842	-0.00289917	
1733737245843	0.0010681152	
1733737245844	0.0020599365	
1733737245845	-0.0022125244	
1733737245846	1.5258789E-4	
1733737245847	2.2888184E-4	
1733737245848	1.5258789E-4	
1733737245849	0.0019073486	
1733737245850	-3.8146973E-4	
1733737245851	0.0021362305	
1733737245852	9.1552734E-4	
1733737245853	9.918213E-4	
1733737245854	0.0035095215	
1733737245855	-0.0016784668	
1733737245856	-0.0025177002	
1733737245857	-9.918213E-4	
1733737245858	-9.918213E-4	
1733737245859	-0.0015258789	
1733737245860	-0.0019073486	
1733737245861	-0.002670288	
1733737245862	-0.0038909912	
1733737245863	0.0012207031	
1733737245864	0.0029754639	
1733737245865	7.6293945E-5	
1733737245866	7.6293945E-4	
1733737245867	0.001449585	
1733737245868	0.0021362305	
1733737245869	0.0010681152	
1733737245870	8.392334E-4	
1733737245871	0.0010681152	
1733737245872	2.2888184E-4	
1733737245873	0.0019836426	
1733737245874	2.2888184E-4	
1733737245875	6.866455E-4	
1733737245876	-6.1035156E-4	
1733737245877	-0.001449585	
1733737245878	1.5258789E-4	
1733737245879	-0.0064086914	
1733737245880	-0.0050354004	
1733737245881	-0.0023651123	
1733737245882	-0.002670288	
1733737245883	0.001449585	
1733737245884	-6.866455E-4	
1733737245885	-0.0020599365	
1733737245886	0.0017547607	
1733737245887	0.0061798096	
1733737245888	0.0051116943	
1733737245889	9.918213E-4	
1733737245890	0.002670288	
1733737245891	0.0022125244	
1733737245892	-4.5776367E-4	
1733737245893	0.0010681152	
1733737245894	0.001449585	
1733737245895	-2.2888184E-4	
1733737245896	0.0	
1733737245897	-0.0012969971	
1733737245898	-0.001373291	
1733737245899	8.392334E-4	
1733737245900	-7.6293945E-4	
1733737245901	-0.0011444092	
1733737245902	-0.0036621094	
1733737245903	-0.001449585	
1733737245904	0.0063323975	
1733737245905	-4.5776367E-4	
1733737245906	-0.005569458	
1733737245907	-0.002670288	
1733737245908	-0.0038146973	
1733737245909	-0.0048065186	
1733737245910	-0.005569458	
1733737245911	-3.0517578E-4	
1733737245912	0.005493164	
1733737245913	0.00289917	
1733737245914	0.0022125244	
1733737245915	3.8146973E-4	
1733737245916	-0.001373291	
1733737245917	9.1552734E-4	
1733737245918	-0.0012969971	
1733737245919	-0.0012969971	
1733737245920	0.0022888184	
1733737245921	0.0038909912	
1733737245922	0.0033569336	
1733737245923	0.0022125244	
1733737245924	0.0032806396	
1733737245925	0.0024414062	
1733737245926	7.6293945E-5	
1733737245927	-0.001373291	
1733737245928	-0.0016784668	
1733737245929	-0.0019836426	
1733737245930	-0.004425049	
1733737245931	-0.0048828125	
1733737245932	-7.6293945E-5	
1733737245933	0.0049591064	
1733737245934	0.0012969971	
1733737245935	-9.918213E-4	
1733737245936	0.0019836426	
1733737245937	1.5258789E-4	
1733737245938	0.0021362305	
1733737245939	0.0017547607	
1733737245940	-0.0015258789	
1733737245941	-0.0019073486	
1733737245942	-0.006866455	
1733737245943	-0.0017547607	
1733737245944	0.00579834	
1733737245945	0.0015258789	
1733737245946	0.001373291	
1733737245947	0.0010681152	
1733737245948	9.918213E-4	
1733737245949	0.0020599365	
1733737245950	-0.00289917	
1733737245951	-0.0022888184	
1733737245952	-0.0012969971	
1733737245953	-0.0038909912	
1733737245954	-0.0015258789	
1733737245955	-0.0011444092	
1733737245956	-0.0019073486	
1733737245957	-0.0032043457	
1733737245958	-0.005645752	
1733737245959	6.866455E-4	
1733737245960	0.0051116943	
1733737245961	0.0022888184	
1733737245962	0.004043579	
1733737245963	0.0038909912	
1733737245964	-4.5776367E-4	
1733737245965	-0.0019836426	
1733737245966	4.5776367E-4	
1733737245967	0.0015258789	
1733737245968	0.001449585	
1733737245969	0.0035858154	
1733737245970	6.866455E-4	
1733737245971	0.001449585	
1733737245972	0.001449585	
1733737245973	-0.0061798096	
1733737245974	-0.0030517578	
1733737245975	-0.0035858154	
1733737245976	-0.00579834	
1733737245977	0.001373291	
1733737245978	-2.2888184E-4	
1733737245979	7.6293945E-4	
1733737245980	0.0048065186	
1733737245981	0.0023651123	
1733737245982	0.004348755	
1733737245983	0.0020599365	
1733737245984	9.1552734E-4	
1733737245985	0.0062561035	
1733737245986	0.0018310547	
1733737245987	-0.004043579	
1733737245988	-0.004119873	
1733737245989	-0.0012207031	
1733737245990	-0.002670288	
1733737245991	-0.0061035156	
1733737245992	-6.1035156E-4	
1733737245993	0.0016021729	
1733737245994	-0.002822876	
1733737245995	-0.0024414062	
1733737245996	6.1035156E-4	
1733737245997	-6.866455E-4	
1733737245998	0.0	
1733737245999	0.002670288	
1733737246000	4.5776367E-4	
1733737246001	3.0517578E-4	
1733737246002	-6.866455E-4	
1733737246003	-7.6293945E-4	
1733737246004	0.0019073486	
1733737246005	-4.5776367E-4	
1733737246006	-6.1035156E-4	
1733737246007	0.0020599365	
1733737246008	-1.5258789E-4	
1733737246009	-0.0038146973	
1733737246010	-0.0024414062	
1733737246011	-0.0015258789	
1733737246012	5.340576E-4	
1733737246013	0.0034332275	
1733737246014	-4.5776367E-4	
1733737246015	0.0024414062	
1733737246016	0.006942749	
1733737246017	6.1035156E-4	
1733737246018	5.340576E-4	
1733737246019	0.005264282	
1733737246020	-8.392334E-4	
1733737246021	-0.0050354004	
1733737246022	-0.0011444092	
1733737246023	-0.001449585	
1733737246024	-0.0018310547	
1733737246025	-0.002822876	
1733737246026	-9.1552734E-4	
1733737246027	0.0010681152	
1733737246028	-9.1552734E-4	
1733737246029	0.0023651123	
1733737246030	2.2888184E-4	
1733737246031	-0.0016784668	
1733737246032	7.6293945E-5	
1733737246033	-5.340576E-4	
1733737246034	0.004196167	
1733737246035	0.004425049	
1733737246036	0.0032043457	
1733737246037	0.0016784668	
1733737246038	-0.0022888184	
1733737246039	-7.6293945E-4	
1733737246040	-0.0038146973	
1733737246041	-0.0038909912	
1733737246042	0.0025939941	
1733737246043	0.0012969971	
1733737246044	-8.392334E-4	
1733737246045	-0.0034332275	
1733737246046	-0.0051879883	
1733737246047	0.0016021729	
1733737246048	0.0022125244	
1733737246049	1.5258789E-4	
1733737246050	0.001449585	
1733737246051	-0.0016021729	
1733737246052	-7.6293945E-4	
1733737246053	6.866455E-4	
1733737246054	-7.6293945E-5	
1733737246055	7.6293945E-5	
1733737246056	-0.0032806396	
1733737246057	-0.0025939941	
1733737246058	0.0034332275	
1733737246059	0.0063323975	
1733737246060	0.0051116943	
1733737246061	6.1035156E-4	
1733737246062	-0.008163452	
1733737246063	-0.012283325	
1733737246064	-0.002746582	
1733737246065	0.002746582	
1733737246066	-0.0016021729	
1733737246067	7.6293945E-4	
1733737246068	0.0048828125	
1733737246069	0.0049591064	
1733737246070	0.0030517578	
1733737246071	0.0011444092	
1733737246072	8.392334E-4	
1733737246073	3.0517578E-4	
1733737246074	4.5776367E-4	
1733737246075	3.0517578E-4	
1733737246076	-0.004425049	
1733737246077	-0.003967285	
1733737246078	0.0022888184	
1733737246079	0.0017547607	
1733737246080	0.0019836426	
1733737246081	0.0023651123	
1733737246082	-0.001449585	
1733737246083	-0.002670288	
1733737246084	-7.6293945E-4	
1733737246085	0.0025177002	
1733737246086	0.001449585	
1733737246087	-0.0011444092	
1733737246088	-1.5258789E-4	
1733737246089	9.1552734E-4	
1733737246090	-2.2888184E-4	
1733737246091	-0.0020599365	
1733737246092	-0.0016021729	
1733737246093	5.340576E-4	
1733737246094	0.004501343	
1733737246095	0.0047302246	
1733737246096	-2.2888184E-4	
1733737246097	-0.0032806396	
1733737246098	-0.0022125244	
1733737246099	-8.392334E-4	
1733737246100	0.0012969971	
1733737246101	-7.6293945E-4	
1733737246102	-0.006713867	
1733737246103	-0.0033569336	
1733737246104	0.0015258789	
1733737246105	0.002670288	
1733737246106	3.0517578E-4	
1733737246107	-0.0037384033	
1733737246108	-0.0019836426	
1733737246109	-0.0019073486	
1733737246110	-3.0517578E-4	
1733737246111	8.392334E-4	
1733737246112	-0.0019836426	
1733737246113	8.392334E-4	
1733737246114	0.002822876	
1733737246115	0.003967285	
1733737246116	0.004119873	
1733737246117	0.0016784668	
1733737246118	0.0022888184	
1733737246119	-0.0018310547	
1733737246120	-0.0036621094	
1733737246121	-9.918213E-4	
1733737246122	-0.002670288	
1733737246123	0.0030517578	
1733737246124	0.0066375732	
1733737246125	3.0517578E-4	
1733737246126	-0.0035858154	
1733737246127	-0.0031280518	
1733737246128	-0.0016784668	
1733737246129	2.2888184E-4	
1733737246130	0.0019836426	
1733737246131	-4.5776367E-4	
1733737246132	-0.0012207031	
1733737246133	6.1035156E-4	
1733737246134	0.0017547607	
1733737246135	0.0021362305	
1733737246136	0.0022888184	
1733737246137	0.0021362305	
1733737246138	7.6293945E-5	
1733737246139	-0.0019836426	
1733737246140	-0.0019836426	
1733737246141	-0.0012207031	
1733737246142	-0.001373291	
1733737246143	-0.0010681152	
1733737246144	-0.0015258789	
1733737246145	-9.1552734E-4	
1733737246146	0.001373291	
1733737246147	0.0025177002	
1733737246148	2.2888184E-4	
1733737246149	-8.392334E-4	
1733737246150	0.001373291	
1733737246151	-0.0038909912	
1733737246152	-0.0051116943	
1733737246153	4.5776367E-4	
1733737246154	-8.392334E-4	
1733737246155	-9.918213E-4	
1733737246156	-0.0012207031	
1733737246157	-0.0015258789	
1733737246158	-3.0517578E-4	
1733737246159	0.001449585	
1733737246160	0.002746582	
1733737246161	0.002746582	
1733737246162	0.0037384033	
1733737246163	0.0012207031	
1733737246164	0.0023651123	
1733737246165	0.0022125244	
1733737246166	-9.918213E-4	
1733737246167	-2.2888184E-4	
1733737246168	-5.340576E-4	
1733737246169	7.6293945E-4	
1733737246170	6.866455E-4	
1733737246171	-0.0017547607	
1733737246172	-0.0034332275	
1733737246173	-0.0019073486	
1733737246174	0.0015258789	
1733737246175	-0.0010681152	
1733737246176	0.0	
1733737246177	0.0025939941	
1733737246178	-9.1552734E-4	
1733737246179	7.6293945E-5	
1733737246180	-0.0023651123	
1733737246181	-0.0048065186	
1733737246182	0.0016784668	
1733737246183	0.0012207031	
1733737246184	-1.5258789E-4	
1733737246185	0.0047302246	
1733737246186	0.004196167	
1733737246187	-7.6293945E-5	
1733737246188	-0.0045776367	
1733737246189	-0.004196167	
1733737246190	8.392334E-4	
1733737246191	7.6293945E-4	
1733737246192	-0.0021362305	
1733737246193	5.340576E-4	
1733737246194	0.004119873	
1733737246195	0.0035095215	
1733737246196	0.0029754639	
1733737246197	-0.002746582	
1733737246198	-0.0074768066	
1733737246199	-0.0047302246	
1733737246200	-0.0032043457	
1733737246201	-0.004043579	
1733737246202	-6.866455E-4	
1733737246203	0.0051116943	
1733737246204	0.0048065186	
1733737246205	5.340576E-4	
1733737246206	-7.6293945E-5	
1733737246207	0.001373291	
1733737246208	-0.0016784668	
1733737246209	-0.0017547607	
1733737246210	4.5776367E-4	
1733737246211	0.0012969971	
1733737246212	0.0038146973	
1733737246213	0.004348755	
1733737246214	0.005874634	
1733737246215	0.0021362305	
1733737246216	-0.0050354004	
1733737246217	-0.002670288	
1733737246218	5.340576E-4	
1733737246219	2.2888184E-4	
1733737246220	-0.0018310547	
1733737246221	-0.0023651123	
1733737246222	9.918213E-4	
1733737246223	-0.0020599365	
1733737246224	-0.003967285	
1733737246225	-8.392334E-4	
1733737246226	-0.0016021729	
1733737246227	-0.0025177002	
1733737246228	-0.003967285	
1733737246229	-0.0015258789	
1733737246230	0.0029754639	
1733737246231	0.0025177002	
1733737246232	0.0016784668	
1733737246233	0.0048828125	
1733737246234	0.0049591064	
1733737246235	0.001449585	
1733737246236	0.0022888184	
1733737246237	5.340576E-4	
1733737246238	-0.0021362305	
1733737246239	-0.0023651123	
1733737246240	9.918213E-4	
1733737246241	-4.5776367E-4	
1733737246242	-0.0029754639	
1733737246243	8.392334E-4	
1733737246244	-0.0036621094	
1733737246245	-3.0517578E-4	
1733737246246	0.002822876	
1733737246247	3.0517578E-4	
1733737246248	0.0049591064	
1733737246249	-0.0017547607	
1733737246250	-0.004272461	
1733737246251	-9.1552734E-4	
1733737246252	-2.2888184E-4	
1733737246253	0.001449585	
1733737246254	-0.0025939941	
1733737246255	-0.0018310547	
1733737246256	6.866455E-4	
1733737246257	-0.0019073486	
1733737246258	-0.001373291	
1733737246259	-0.0017547607	
1733737246260	-0.00289917	
1733737246261	0.004501343	
1733737246262	0.005874634	
1733737246263	-9.1552734E-4	
1733737246264	9.918213E-4	
1733737246265	0.0025177002	
1733737246266	0.0030517578	
1733737246267	0.0064849854	
1733737246268	-9.1552734E-4	
1733737246269	-0.005569458	
1733737246270	-1.5258789E-4	
1733737246271	-0.0024414062	
1733737246272	-0.0047302246	
1733737246273	4.5776367E-4	
1733737246274	0.0020599365	
1733737246275	-0.0035095215	
1733737246276	-0.007095337	
1733737246277	-0.0022125244	
1733737246278	0.0021362305	
1733737246279	0.0012969971	
1733737246280	-6.1035156E-4	
1733737246281	-0.003967285	
1733737246282	-4.5776367E-4	
1733737246283	0.0048828125	
1733737246284	3.8146973E-4	
1733737246285	0.001373291	
1733737246286	0.005569458	
1733737246287	0.0030517578	
1733737246288	0.002670288	
1733737246289	0.0023651123	
1733737246290	-6.866455E-4	
1733737246291	3.0517578E-4	
1733737246292	-3.0517578E-4	
1733737246293	-0.0017547607	
1733737246294	0.0016784668	
1733737246295	0.0	
1733737246296	-0.0018310547	
1733737246297	-0.001449585	
1733737246298	-0.0030517578	
1733737246299	-9.918213E-4	
1733737246300	-0.0018310547	
1733737246301	-0.002822876	
1733737246302	0.0015258789	
1733737246303	-6.1035156E-4	
1733737246304	-0.004043579	
1733737246305	-0.0015258789	
1733737246306	7.6293945E-5	
1733737246307	-7.6293945E-5	
1733737246308	0.0022125244	
1733737246309	0.0	
1733737246310	-0.0031280518	
1733737246311	0.004348755	
1733737246312	0.00579834	
1733737246313	0.0024414062	
1733737246314	1.5258789E-4	
1733737246315	-0.00289917	
1733737246316	0.002822876	
1733737246317	0.0029754639	
1733737246318	-0.0034332275	
1733737246319	-0.0035858154	
1733737246320	4.5776367E-4	
1733737246321	0.0037384033	
1733737246322	-0.0010681152	
1733737246323	-0.0035858154	
1733737246324	-0.0012207031	
1733737246325	-0.004348755	
1733737246326	-0.0037384033	
1733737246327	0.0037384033	
1733737246328	0.0029754639	
1733737246329	7.6293945E-5	
1733737246330	0.001449585	
1733737246331	0.0016021729	
1733737246332	0.00289917	
1733737246333	0.0032043457	
1733737246334	0.0019073486	
1733737246335	7.6293945E-5	
1733737246336	0.0022888184	
1733737246337	0.004425049	
1733737246338	-0.002746582	
1733737246339	-0.0033569336	
1733737246340	3.0517578E-4	
1733737246341	-0.0022125244	
1733737246342	-0.002670288	
1733737246343	-7.6293945E-5	
1733737246344	-0.0017547607	
1733737246345	-0.0074768066	
1733737246346	-0.007095337	
1733737246347	-0.0035858154	
1733737246348	0.0025939941	
1733737246349	0.0038146973	
1733737246350	-0.0030517578	
1733737246351	-7.6293945E-5	
1733737246352	0.0025177002	
1733737246353	0.0034332275	
1733737246354	0.004119873	
1733737246355	-0.0032806396	
1733737246356	-0.0031280518	
1733737246357	-6.866455E-4	
1733737246358	-0.0016784668	
1733737246359	7.6293945E-4	
1733737246360	0.005264282	
1733737246361	0.00579834	
1733737246362	0.0019073486	
1733737246363	8.392334E-4	
1733737246364	0.0025177002	
1733737246365	0.0032043457	
1733737246366	-0.0021362305	
1733737246367	-0.004348755	
1733737246368	-0.0012207031	
1733737246369	-0.0030517578	
1733737246370	-0.0015258789	
1733737246371	3.8146973E-4	
1733737246372	-0.005645752	
1733737246373	-0.0021362305	
1733737246374	0.0046539307	
1733737246375	0.0016021729	
1733737246376	0.0022888184	
1733737246377	0.0029754639	
1733737246378	0.0012969971	
1733737246379	0.0011444092	
1733737246380	5.340576E-4	
1733737246381	-0.0018310547	
1733737246382	-0.0062561035	
1733737246383	-0.0031280518	
1733737246384	-2.2888184E-4	
1733737246385	-8.392334E-4	
1733737246386	0.0037384033	
1733737246387	0.0035858154	
1733737246388	0.0016784668	
1733737246389	-5.340576E-4	
1733737246390	-0.0024414062	
1733737246391	2.2888184E-4	
1733737246392	-7.6293945E-5	
1733737246393	-5.340576E-4	
1733737246394	6.866455E-4	
1733737246395	0.00289917	
1733737246396	9.918213E-4	
1733737246397	-0.0018310547	
1733737246398	9.918213E-4	
1733737246399	0.0034332275	
1733737246400	-4.5776367E-4	
1733737246401	-0.0064849854	
1733737246402	-0.00541687	
1733737246403	-0.0018310547	
1733737246404	3.8146973E-4	
1733737246405	3.8146973E-4	
1733737246406	-0.0021362305	
1733737246407	-0.0018310547	
1733737246408	0.002822876	
1733737246409	0.0025939941	
1733737246410	0.0022888184	
1733737246411	0.004043579	
1733737246412	-8.392334E-4	
1733737246413	-7.6293945E-5	
1733737246414	0.0016021729	
1733737246415	-0.0020599365	
1733737246416	-0.0032806396	
1733737246417	-0.001449585	
1733737246418	0.0012969971	
1733737246419	2.2888184E-4	
1733737246420	0.0033569336	
1733737246421	0.0025939941	
1733737246422	-0.002746582	
1733737246423	0.0	
1733737246424	0.0010681152	
1733737246425	0.0016784668	
1733737246426	0.0010681152	
1733737246427	-0.00289917	
1733737246428	-0.0031280518	
1733737246429	-0.004119873	
1733737246430	-0.0019073486	
1733737246431	0.0015258789	
1733737246432	-0.0020599365	
1733737246433	-5.340576E-4	
1733737246434	-5.340576E-4	
1733737246435	-0.00289917	
1733737246436	0.0022888184	
1733737246437	0.0021362305	
1733737246438	0.002822876	
1733737246439	0.007095337	
1733737246440	-7.6293945E-5	
1733737246441	-0.001373291	
1733737246442	0.005569458	
1733737246443	0.0016784668	
1733737246444	-9.918213E-4	
1733737246445	0.0016784668	
1733737246446	-3.8146973E-4	
1733737246447	-0.0036621094	
1733737246448	-0.002670288	
1733737246449	0.0	
1733737246450	-9.918213E-4	
1733737246451	-0.0020599365	
1733737246452	-0.0030517578	
1733737246453	-0.0031280518	
1733737246454	-0.0023651123	
1733737246455	7.6293945E-4	
1733737246456	0.0034332275	
1733737246457	-1.5258789E-4	
1733737246458	5.340576E-4	
1733737246459	-0.0022125244	
1733737246460	-0.005264282	
1733737246461	-0.001449585	
1733737246462	0.0031280518	
1733737246463	0.005874634	
1733737246464	-0.0017547607	
1733737246465	-0.0024414062	
1733737246466	0.0022888184	
1733737246467	2.2888184E-4	
1733737246468	0.004425049	
1733737246469	0.004348755	
1733737246470	0.0016021729	
1733737246471	0.001449585	
1733737246472	-0.0010681152	
1733737246473	3.8146973E-4	
1733737246474	-0.0012207031	
1733737246475	-5.340576E-4	
1733737246476	0.0018310547	
1733737246477	-3.0517578E-4	
1733737246478	-0.0016021729	
1733737246479	-0.002746582	
1733737246480	-0.0021362305	
1733737246481	-9.1552734E-4	
1733737246482	-7.6293945E-4	
1733737246483	-0.0025939941	
1733737246484	-0.0063323975	
1733737246485	-0.004272461	
1733737246486	0.0023651123	
1733737246487	0.001373291	
1733737246488	-7.6293945E-5	
1733737246489	9.1552734E-4	
1733737246490	7.6293945E-4	
1733737246491	0.0049591064	
1733737246492	0.0036621094	
1733737246493	0.0017547607	
1733737246494	0.0019836426	
1733737246495	6.866455E-4	
1733737246496	0.0025939941	
1733737246497	-0.0016784668	
1733737246498	-0.002822876	
1733737246499	2.2888184E-4	
1733737246500	-0.0019836426	
1733737246501	9.918213E-4	
1733737246502	0.0015258789	
1733737246503	-0.0032043457	
1733737246504	-0.001449585	
1733737246505	6.1035156E-4	
1733737246506	-7.6293945E-5	
1733737246507	-7.6293945E-5	
1733737246508	6.866455E-4	
1733737246509	-7.6293945E-4	
1733737246510	-0.0019836426	
1733737246511	-0.0023651123	
1733737246512	-0.005569458	
1733737246513	-0.0021362305	
1733737246514	0.0031280518	
1733737246515	0.0010681152	
1733737246516	7.6293945E-5	
1733737246517	0.0019073486	
1733737246518	0.0015258789	
1733737246519	-1.5258789E-4	
1733737246520	-1.5258789E-4	
1733737246521	0.0046539307	
1733737246522	0.0059509277	
1733737246523	6.1035156E-4	
1733737246524	6.866455E-4	
1733737246525	8.392334E-4	
1733737246526	-0.002746582	
1733737246527	-0.00579834	
1733737246528	-0.0049591064	
1733737246529	6.866455E-4	
1733737246530	0.0035858154	
1733737246531	0.0016784668	
1733737246532	-0.0024414062	
1733737246533	-0.0032043457	
1733737246534	-0.0019073486	
1733737246535	0.0022888184	
1733737246536	0.004348755	
1733737246537	-3.0517578E-4	
1733737246538	9.1552734E-4	
1733737246539	4.5776367E-4	
1733737246540	-0.0012207031	
1733737246541	0.0024414062	
1733737246542	-9.918213E-4	
1733737246543	-0.0024414062	
1733737246544	0.0017547607	
1733737246545	8.392334E-4	
1733737246546	-6.1035156E-4	
1733737246547	-5.340576E-4	
1733737246548	-0.0018310547	
1733737246549	-0.0036621094	
1733737246550	-9.1552734E-4	
1733737246551	2.2888184E-4	
1733737246552	-0.004272461	
1733737246553	-1.5258789E-4	
1733737246554	0.00289917	
1733737246555	-0.0038909912	
1733737246556	-0.0031280518	
1733737246557	-0.0010681152	
1733737246558	-0.0022888184	
1733737246559	0.002670288	
1733737246560	0.006942749	
1733737246561	0.008544922	
1733737246562	0.007019043	
1733737246563	0.0035095215	
1733737246564	0.0016021729	
1733737246565	4.5776367E-4	
1733737246566	-0.0018310547	
1733737246567	-0.0017547607	
1733737246568	-0.0020599365	
1733737246569	-0.007095337	
1733737246570	-0.00579834	
1733737246571	-8.392334E-4	
1733737246572	9.918213E-4	
1733737246573	7.6293945E-4	
1733737246574	1.5258789E-4	
1733737246575	0.0010681152	
1733737246576	0.0025177002	
1733737246577	0.00289917	
1733737246578	-9.1552734E-4	
1733737246579	9.1552734E-4	
1733737246580	-9.918213E-4	
1733737246581	-0.0059509277	
1733737246582	0.0019836426	
1733737246583	0.0025177002	
1733737246584	-9.918213E-4	
1733737246585	-0.0023651123	
1733737246586	-0.005645752	
1733737246587	-0.0038146973	
1733737246588	-0.0065612793	
1733737246589	-0.0036621094	
1733737246590	0.0032806396	
1733737246591	-2.2888184E-4	
1733737246592	0.0063323975	
1733737246593	0.0118255615	
1733737246594	-2.2888184E-4	
1733737246595	-0.0025177002	
1733737246596	0.0023651123	
1733737246597	0.0022125244	
1733737246598	0.0046539307	
1733737246599	0.004043579	
1733737246600	0.0012969971	
1733737246601	0.00289917	
1733737246602	6.866455E-4	
1733737246603	-0.0048828125	
1733737246604	-0.0016021729	
1733737246605	3.0517578E-4	
1733737246606	-0.005569458	
1733737246607	-0.0061035156	
1733737246608	-0.003967285	
1733737246609	-0.0060272217	
1733737246610	-0.0046539307	
1733737246611	-8.392334E-4	
1733737246612	0.0010681152	
1733737246613	0.0038146973	
1733737246614	0.002670288	
1733737246615	7.6293945E-5	
1733737246616	-0.0030517578	
1733737246617	-0.0024414062	
1733737246618	0.0023651123	
1733737246619	-0.0010681152	
1733737246620	-6.1035156E-4	
1733737246621	0.005569458	
1733737246622	0.0074005127	
1733737246623	0.0051116943	
1733737246624	0.0033569336	
1733737246625	0.0038146973	
1733737246626	9.1552734E-4	
1733737246627	2.2888184E-4	
1733737246628	-0.0012969971	
1733737246629	-0.0022125244	
1733737246630	-4.5776367E-4	
1733737246631	-0.0025177002	
1733737246632	-0.0016784668	
1733737246633	-0.00289917	
1733737246634	-0.002746582	
1733737246635	0.0016021729	
1733737246636	-4.5776367E-4	
1733737246637	8.392334E-4	
1733737246638	9.918213E-4	
1733737246639	-0.0020599365	
1733737246640	-1.5258789E-4	
1733737246641	-0.002746582	
1733737246642	0.0016784668	
1733737246643	0.004196167	
1733737246644	-0.009536743	
1733737246645	-0.008544922	
1733737246646	-0.0025177002	
1733737246647	-0.0029754639	
1733737246648	0.0038146973	
1733737246649	0.002822876	
1733737246650	4.5776367E-4	
1733737246651	-2.2888184E-4	
1733737246652	-9.1552734E-4	
1733737246653	0.0074768066	
1733737246654	0.006942749	
1733737246655	4.5776367E-4	
1733737246656	0.0032806396	
1733737246657	6.866455E-4	
1733737246658	-1.5258789E-4	
1733737246659	0.0024414062	
1733737246660	-4.5776367E-4	
1733737246661	7.6293945E-4	
1733737246662	0.0	
1733737246663	0.001373291	
1733737246664	0.0032043457	
1733737246665	0.0020599365	
1733737246666	-3.0517578E-4	
1733737246667	-0.0051879883	
1733737246668	-0.0038909912	
1733737246669	-0.002670288	
1733737246670	-0.0012969971	
1733737246671	-0.0035858154	
1733737246672	-0.007171631	
1733737246673	-0.0021362305	
1733737246674	-0.002670288	
1733737246675	-0.0019073486	
1733737246676	3.8146973E-4	
1733737246677	-0.0022125244	
1733737246678	-0.0012969971	
1733737246679	-0.002746582	
1733737246680	0.001373291	
1733737246681	0.0064086914	
1733737246682	0.002670288	
1733737246683	7.6293945E-4	
1733737246684	9.918213E-4	
1733737246685	0.0031280518	
1733737246686	0.0065612793	
1733737246687	0.002670288	
1733737246688	0.0016021729	
1733737246689	0.00579834	
1733737246690	0.0015258789	
1733737246691	-9.1552734E-4	
1733737246692	-6.1035156E-4	
1733737246693	-0.0035858154	
1733737246694	-0.0020599365	
1733737246695	-0.0018310547	
1733737246696	-0.004119873	
1733737246697	0.0024414062	
1733737246698	0.0029754639	
1733737246699	-0.0031280518	
1733737246700	6.1035156E-4	
1733737246701	-0.0032043457	
1733737246702	-0.0046539307	
1733737246703	-3.8146973E-4	
1733737246704	-0.0021362305	
1733737246705	0.002670288	
1733737246706	-0.0018310547	
1733737246707	-0.007171631	
1733737246708	-0.0012207031	
1733737246709	-7.6293945E-4	
1733737246710	0.0035858154	
1733737246711	0.005264282	
1733737246712	-9.918213E-4	
1733737246713	-0.0016784668	
1733737246714	2.2888184E-4	
1733737246715	2.2888184E-4	
1733737246716	0.0031280518	
1733737246717	0.0023651123	
1733737246718	7.6293945E-4	
1733737246719	0.0029754639	
1733737246720	5.340576E-4	
1733737246721	-7.6293945E-4	
1733737246722	9.918213E-4	
1733737246723	0.0033569336	
1733737246724	-0.0020599365	
1733737246725	-0.0065612793	
1733737246726	0.00289917	
1733737246727	0.0032806396	
1733737246728	-0.0015258789	
1733737246729	0.0032043457	
1733737246730	0.0024414062	
1733737246731	-0.005874634	
1733737246732	-0.005264282	
1733737246733	-8.392334E-4	
1733737246734	0.0017547607	
1733737246735	0.0030517578	
1733737246736	-0.00289917	
1733737246737	-0.0051879883	
1733737246738	-0.0024414062	
1733737246739	0.0025939941	
1733737246740	0.004348755	
1733737246741	0.0019073486	
1733737246742	0.0029754639	
1733737246743	0.0022888184	
1733737246744	7.6293945E-5	
1733737246745	6.1035156E-4	
1733737246746	0.0023651123	
1733737246747	4.5776367E-4	
1733737246748	-0.0017547607	
1733737246749	-0.00289917	
1733737246750	-0.0032043457	
1733737246751	-0.002746582	
1733737246752	-0.0019836426	
1733737246753	0.0012969971	
1733737246754	0.0018310547	
1733737246755	-7.6293945E-5	
1733737246756	-7.6293945E-4	
1733737246757	0.0012969971	
1733737246758	-0.0015258789	
1733737246759	-0.004348755	
1733737246760	-0.004119873	
1733737246761	-0.0066375732	
1733737246762	-0.0017547607	
1733737246763	0.001373291	
1733737246764	0.0025177002	
1733737246765	0.004119873	
1733737246766	-4.5776367E-4	
1733737246767	0.0022125244	
1733737246768	0.0077819824	
1733737246769	0.0046539307	
1733737246770	0.0018310547	
1733737246771	0.001373291	
1733737246772	-6.866455E-4	
1733737246773	-0.0023651123	
1733737246774	-0.004196167	
1733737246775	-6.866455E-4	
1733737246776	0.004196167	
1733737246777	0.0022125244	
1733737246778	4.5776367E-4	
1733737246779	-9.918213E-4	
1733737246780	-0.0029754639	
1733737246781	-0.0047302246	
1733737246782	-0.005722046	
1733737246783	6.866455E-4	
1733737246784	0.0018310547	
1733737246785	-0.004272461	
1733737246786	-3.8146973E-4	
1733737246787	0.0019073486	
1733737246788	0.0	
1733737246789	0.0023651123	
1733737246790	0.0022888184	
1733737246791	0.0031280518	
1733737246792	0.0011444092	
1733737246793	-0.0038146973	
1733737246794	-0.001373291	
1733737246795	0.0011444092	
1733737246796	0.001373291	
1733737246797	0.004348755	
1733737246798	0.0036621094	
1733737246799	-2.2888184E-4	
1733737246800	-0.001449585	
1733737246801	-0.0064086914	
1733737246802	-0.007095337	
1733737246803	-0.0019836426	
1733737246804	-5.340576E-4	
1733737246805	0.0025939941	
1733737246806	0.0020599365	
1733737246807	0.0025939941	
1733737246808	0.0038146973	
1733737246809	0.0033569336	
1733737246810	0.007858276	
1733737246811	6.866455E-4	
1733737246812	-0.007858276	
1733737246813	-0.005340576	
1733737246814	-0.0076293945	
1733737246815	-0.006790161	
1733737246816	8.392334E-4	
1733737246817	0.0035858154	
1733737246818	0.005493164	
1733737246819	0.0090789795	
1733737246820	0.0024414062	
1733737246821	-0.0045776367	
1733737246822	-3.8146973E-4	
1733737246823	-0.0051116943	
1733737246824	-0.01083374	
1733737246825	-0.008010864	
1733737246826	-0.009231567	
1733737246827	-0.00579834	
1733737246828	0.0018310547	
1733737246829	0.008163452	
1733737246830	0.012664795	
1733737246831	0.0104522705	
1733737246832	0.0077819824	
1733737246833	0.007019043	
1733737246834	0.0034332275	
1733737246835	-0.0032043457	
1733737246836	-0.0076293945	
1733737246837	-0.0064849854	
1733737246838	-0.0064086914	
1733737246839	-0.004348755	
1733737246840	0.0023651123	
1733737246841	0.009231567	
1733737246842	0.014572144	
1733737246843	0.009307861	
1733737246844	0.0031280518	
1733737246845	9.918213E-4	
1733737246846	-0.005569458	
1733737246847	-0.0019836426	
1733737246848	-0.002670288	
1733737246849	-0.008850098	
1733737246850	-0.0062561035	
1733737246851	-0.0074768066	
1733737246852	-0.0061035156	
1733737246853	0.0017547607	
1733737246854	0.0074005127	
1733737246855	0.0046539307	
1733737246856	0.0	
1733737246857	-0.0017547607	
1733737246858	-0.0032806396	
1733737246859	-0.002670288	
1733737246860	-0.008087158	
1733737246861	-0.0065612793	
1733737246862	0.0024414062	
1733737246863	0.0016784668	
1733737246864	0.006942749	
1733737246865	0.010070801	
1733737246866	0.004272461	
1733737246867	0.0047302246	
1733737246868	0.0038146973	
1733737246869	0.0034332275	
1733737246870	3.8146973E-4	
1733737246871	-0.0076293945	
1733737246872	-0.008163452	
1733737246873	-0.0074768066	
1733737246874	-5.340576E-4	
1733737246875	0.0038146973	
1733737246876	-0.004196167	
1733737246877	-0.0025177002	
1733737246878	-0.002670288	
1733737246879	-0.0073242188	
1733737246880	-0.0022888184	
1733737246881	0.0010681152	
1733737246882	-3.8146973E-4	
1733737246883	9.1552734E-4	
1733737246884	0.006790161	
1733737246885	0.007019043	
1733737246886	-0.0022125244	
1733737246887	-0.0065612793	
1733737246888	-0.0012969971	
1733737246889	5.340576E-4	
1733737246890	-0.001449585	
1733737246891	0.0023651123	
1733737246892	0.0077056885	
1733737246893	0.006790161	
1733737246894	-0.0016021729	
1733737246895	-0.0012207031	
1733737246896	0.0023651123	
1733737246897	-0.0032806396	
1733737246898	4.5776367E-4	
1733737246899	0.0037384033	
1733737246900	-0.0048065186	
1733737246901	-0.0062561035	
1733737246902	-2.2888184E-4	
1733737246903	0.0074005127	
1733737246904	0.009002686	
1733737246905	0.00289917	
1733737246906	-3.8146973E-4	
1733737246907	-0.009689331	
1733737246908	-0.010299683	
1733737246909	0.005645752	
1733737246910	0.009765625	
1733737246911	0.0063323975	
1733737246912	0.0061035156	
1733737246913	0.0066375732	
1733737246914	0.0024414062	
1733737246915	-0.005569458	
1733737246916	-0.00541687	
1733737246917	-0.005264282	
1733737246918	-0.016174316	
1733737246919	-0.017089844	
1733737246920	-0.008087158	
1733737246921	-0.004043579	
1733737246922	0.0	
1733737246923	0.0033569336	
1733737246924	0.004119873	
1733737246925	0.004119873	
1733737246926	0.0045776367	
1733737246927	0.005569458	
1733737246928	0.0059509277	
1733737246929	0.0061035156	
1733737246930	0.003967285	
1733737246931	-3.8146973E-4	
1733737246932	-0.0019073486	
1733737246933	-0.0015258789	
1733737246934	0.0010681152	
1733737246935	0.0032043457	
1733737246936	0.0049591064	
1733737246937	0.005493164	
1733737246938	3.0517578E-4	
1733737246939	-9.1552734E-4	
1733737246940	-0.0010681152	
1733737246941	-0.0031280518	
1733737246942	3.8146973E-4	
1733737246943	0.0016021729	
1733737246944	-0.004119873	
1733737246945	-0.00831604	
1733737246946	-0.008544922	
1733737246947	-0.005340576	
1733737246948	9.918213E-4	
1733737246949	1.5258789E-4	
1733737246950	0.0037384033	
1733737246951	0.0074005127	
1733737246952	-0.005264282	
1733737246953	-0.0045776367	
1733737246954	-0.0025177002	
1733737246955	-0.0025177002	
1733737246956	0.005569458	
1733737246957	-7.6293945E-4	
1733737246958	-1.5258789E-4	
1733737246959	0.0025939941	
1733737246960	-7.6293945E-5	
1733737246961	2.2888184E-4	
1733737246962	-0.008239746	
1733737246963	-0.0049591064	
1733737246964	0.0047302246	
1733737246965	0.006713867	
1733737246966	0.01121521	
1733737246967	0.01159668	
1733737246968	0.006942749	
1733737246969	5.340576E-4	
1733737246970	-0.0029754639	
1733737246971	-0.0015258789	
1733737246972	5.340576E-4	
1733737246973	-0.0010681152	
1733737246974	-5.340576E-4	
1733737246975	0.0020599365	
1733737246976	-6.866455E-4	
1733737246977	-0.005340576	
1733737246978	-0.004196167	
1733737246979	-0.0012969971	
1733737246980	-0.007171631	
1733737246981	-0.008850098	
1733737246982	-0.0075531006	
1733737246983	-0.009307861	
1733737246984	-0.0012969971	
1733737246985	2.2888184E-4	
1733737246986	-0.0015258789	
1733737246987	0.0046539307	
1733737246988	0.004425049	
1733737246989	0.0035095215	
1733737246990	0.0048828125	
1733737246991	0.0021362305	
1733737246992	5.340576E-4	
1733737246993	5.340576E-4	
1733737246994	-0.0019073486	
1733737246995	0.0022125244	
1733737246996	0.0036621094	
1733737246997	-0.004043579	
1733737246998	-0.0063323975	
1733737246999	-0.0022125244	
1733737247000	0.0046539307	
1733737247001	0.008773804	
1733737247002	0.006942749	
1733737247003	0.0064849854	
1733737247004	0.004348755	
1733737247005	-0.001373291	
1733737247006	-0.0037384033	
1733737247007	-0.0050354004	
1733737247008	-0.008850098	
1733737247009	-0.01083374	
1733737247010	-0.0029754639	
1733737247011	0.005645752	
1733737247012	0.0012969971	
1733737247013	-3.8146973E-4	
1733737247014	0.011672974	
1733737247015	0.011138916	
1733737247016	0.0019836426	
1733737247017	0.004348755	
1733737247018	0.005264282	
1733737247019	-3.0517578E-4	
1733737247020	-0.0036621094	
1733737247021	-0.0018310547	
1733737247022	-0.0061035156	
1733737247023	-0.008392334	
1733737247024	-0.0048828125	
1733737247025	-0.0022888184	
1733737247026	0.0061035156	
1733737247027	0.0011444092	
1733737247028	-0.0048065186	
1733737247029	-0.001449585	
1733737247030	-0.00869751	
1733737247031	-0.009002686	
1733737247032	-0.007858276	
1733737247033	-0.0035095215	
1733737247034	0.009384155	
1733737247035	0.0051879883	
1733737247036	6.1035156E-4	
1733737247037	0.001449585	
1733737247038	-8.392334E-4	
1733737247039	-0.0012969971	
1733737247040	-0.0047302246	
1733737247041	9.1552734E-4	
1733737247042	0.008163452	
1733737247043	0.0077056885	
1733737247044	0.00831604	
1733737247045	0.0016021729	
1733737247046	-7.6293945E-5	
1733737247047	0.0050354004	
1733737247048	0.002746582	
1733737247049	-0.0031280518	
1733737247050	-0.00579834	
1733737247051	-0.0012969971	
1733737247052	-0.005569458	
1733737247053	-0.0015258789	
1733737247054	0.007095337	
1733737247055	-0.0037384033	
1733737247056	-0.0010681152	
1733737247057	0.002670288	
1733737247058	-0.0012969971	
1733737247059	6.1035156E-4	
1733737247060	-0.007858276	
1733737247061	-0.006713867	
1733737247062	7.6293945E-5	
1733737247063	-0.0032806396	
1733737247064	0.002822876	
1733737247065	0.0032806396	
1733737247066	-3.0517578E-4	
1733737247067	7.6293945E-4	
1733737247068	-0.00289917	
1733737247069	-1.5258789E-4	
1733737247070	0.0038909912	
1733737247071	0.007858276	
1733737247072	0.011291504	
1733737247073	0.0074768066	
1733737247074	0.0016021729	
1733737247075	-0.00289917	
1733737247076	-0.0016784668	
1733737247077	-0.004119873	
1733737247078	-0.00793457	
1733737247079	-0.009307861	
1733737247080	-0.011978149	
1733737247081	-0.0077819824	
1733737247082	-5.340576E-4	
1733737247083	0.005569458	
1733737247084	0.0074005127	
1733737247085	0.00831604	
1733737247086	0.0019073486	
1733737247087	-0.0038146973	
1733737247088	0.0011444092	
1733737247089	-0.0064086914	
1733737247090	-0.005569458	
1733737247091	0.002670288	
1733737247092	-9.918213E-4	
1733737247093	0.0031280518	
1733737247094	0.002670288	
1733737247095	1.5258789E-4	
1733737247096	-0.0011444092	
1733737247097	-0.0032806396	
1733737247098	0.0060272217	
1733737247099	0.00869751	
1733737247100	0.005722046	
1733737247101	0.006866455	
1733737247102	9.1552734E-4	
1733737247103	-0.0048828125	
1733737247104	-0.0018310547	
1733737247105	-0.0010681152	
1733737247106	-0.007171631	
1733737247107	-0.004272461	
1733737247108	0.0018310547	
1733737247109	-0.0032043457	
1733737247110	-0.004196167	
1733737247111	0.0016021729	
1733737247112	-2.2888184E-4	
1733737247113	-0.0037384033	
1733737247114	-0.0063323975	
1733737247115	4.5776367E-4	
1733737247116	0.0066375732	
1733737247117	0.0046539307	
1733737247118	0.005264282	
1733737247119	-6.1035156E-4	
1733737247120	-0.002670288	
1733737247121	-3.0517578E-4	
1733737247122	-0.0061798096	
1733737247123	-0.0035095215	
1733737247124	0.005340576	
1733737247125	0.0076293945	
1733737247126	0.008621216	
1733737247127	0.0064086914	
1733737247128	-6.1035156E-4	
1733737247129	-0.005722046	
1733737247130	-0.005722046	
1733737247131	-0.008087158	
1733737247132	-0.005874634	
1733737247133	0.00541687	
1733737247134	0.0075531006	
1733737247135	0.0038909912	
1733737247136	0.0	
1733737247137	-0.001373291	
1733737247138	0.0031280518	
1733737247139	0.004425049	
1733737247140	0.005569458	
1733737247141	0.009384155	
1733737247142	0.00579834	
1733737247143	-3.0517578E-4	
1733737247144	0.0011444092	
1733737247145	-0.004425049	
1733737247146	-0.009307861	
1733737247147	-0.0062561035	
1733737247148	-0.009002686	
1733737247149	-0.008239746	
1733737247150	-0.0046539307	
1733737247151	-0.0077819824	
1733737247152	-0.009384155	
1733737247153	-0.009536743	
1733737247154	-0.012054443	
1733737247155	-0.008544922	
1733737247156	-0.0062561035	
1733737247157	-0.008773804	
1733737247158	-0.008010864	
1733737247159	-0.01083374	
1733737247160	-0.006713867	
1733737247161	0.0049591064	
1733737247162	0.005874634	
1733737247163	0.0031280518	
1733737247164	0.005340576	
1733737247165	0.0032043457	
1733737247166	0.0023651123	
1733737247167	0.0025939941	
1733737247168	0.002670288	
1733737247169	0.006790161	
1733737247170	0.0023651123	
1733737247171	0.0061798096	
1733737247172	0.016403198	
1733737247173	0.010757446	
1733737247174	0.008163452	
1733737247175	0.01121521	
1733737247176	0.01121521	
1733737247177	0.013961792	
1733737247178	0.014572144	
1733737247179	0.012130737	
1733737247180	0.0090789795	
1733737247181	0.005645752	
1733737247182	0.008392334	
1733737247183	0.013427734	
1733737247184	0.008544922	
1733737247185	0.008621216	
1733737247186	0.0061798096	
1733737247187	0.0016784668	
1733737247188	3.8146973E-4	
1733737247189	-0.004119873	
1733737247190	-0.0077056885	
1733737247191	-0.009841919	
1733737247192	-0.008544922	
1733737247193	-0.009613037	
1733737247194	-0.009994507	
1733737247195	-0.008850098	
1733737247196	-0.0077819824	
1733737247197	-0.013885498	
1733737247198	-0.014801025	
1733737247199	-0.013122559	
1733737247200	-0.016326904	
1733737247201	-0.023880005	
1733737247202	-0.02456665	
1733737247203	-0.013885498	
1733737247204	-0.01335144	
1733737247205	-0.010070801	
1733737247206	-0.00289917	
1733737247207	-0.0050354004	
1733737247208	-0.0059509277	
1733737247209	-0.005569458	
1733737247210	0.0019073486	
1733737247211	0.0024414062	
1733737247212	0.001449585	
1733737247213	0.0038909912	
1733737247214	0.00289917	
1733737247215	0.0025939941	
1733737247216	-0.0023651123	
1733737247217	-7.6293945E-5	
1733737247218	0.00831604	
1733737247219	0.011672974	
1733737247220	0.015182495	
1733737247221	0.013961792	
1733737247222	0.015029907	
1733737247223	0.016937256	
1733737247224	0.011749268	
1733737247225	0.0073242188	
1733737247226	0.009994507	
1733737247227	0.009002686	
1733737247228	0.0049591064	
1733737247229	0.0050354004	
1733737247230	0.0024414062	
1733737247231	0.0045776367	
1733737247232	0.0049591064	
1733737247233	0.001373291	
1733737247234	0.0	
1733737247235	-0.0073242188	
1733737247236	-0.012359619	
1733737247237	-0.0075531006	
1733737247238	-0.007095337	
1733737247239	-0.004272461	
1733737247240	0.0048065186	
1733737247241	0.0038909912	
1733737247242	0.00289917	
1733737247243	0.003967285	
1733737247244	0.0022125244	
1733737247245	0.006790161	
1733737247246	0.006942749	
1733737247247	-3.0517578E-4	
1733737247248	-7.6293945E-5	
1733737247249	0.0017547607	
1733737247250	-7.6293945E-4	
1733737247251	9.1552734E-4	
1733737247252	-4.5776367E-4	
1733737247253	-0.004119873	
1733737247254	0.0	
1733737247255	-0.002746582	
1733737247256	-0.0025939941	
1733737247257	-0.001449585	
1733737247258	-0.0022125244	
1733737247259	-0.0022888184	
1733737247260	-0.0051116943	
1733737247261	-0.008087158	
1733737247262	-0.011367798	
1733737247263	-0.010528564	
1733737247264	-0.008773804	
1733737247265	-0.005340576	
1733737247266	-0.005569458	
1733737247267	-0.0075531006	
1733737247268	-0.005645752	
1733737247269	-0.006713867	
1733737247270	-0.008239746	
1733737247271	-0.005645752	
1733737247272	-0.005874634	
1733737247273	-0.002746582	
1733737247274	-3.0517578E-4	
1733737247275	-0.0038146973	
1733737247276	5.340576E-4	
1733737247277	0.005264282	
1733737247278	0.0051116943	
1733737247279	0.0048828125	
1733737247280	0.004272461	
1733737247281	0.009384155	
1733737247282	0.00869751	
1733737247283	0.002670288	
1733737247284	0.004501343	
1733737247285	0.008468628	
1733737247286	0.0060272217	
1733737247287	0.00289917	
1733737247288	0.0066375732	
1733737247289	0.0046539307	
1733737247290	3.8146973E-4	
1733737247291	0.0060272217	
1733737247292	0.005264282	
1733737247293	0.0061035156	
1733737247294	0.005722046	
1733737247295	-0.0023651123	
1733737247296	-0.0035095215	
1733737247297	7.6293945E-4	
1733737247298	0.0016021729	
1733737247299	-0.0021362305	
1733737247300	-0.004043579	
1733737247301	-7.6293945E-4	
1733737247302	0.004425049	
1733737247303	0.008392334	
1733737247304	0.0036621094	
1733737247305	-0.006866455	
1733737247306	-0.0038146973	
1733737247307	-0.0035858154	
1733737247308	-0.0051116943	
1733737247309	0.0021362305	
1733737247310	-0.0025177002	
1733737247311	-0.0033569336	
1733737247312	-0.0017547607	
1733737247313	-0.0047302246	
1733737247314	-0.0017547607	
1733737247315	-0.0038909912	
1733737247316	0.0	
1733737247317	-6.1035156E-4	
1733737247318	-0.0038909912	
1733737247319	0.003967285	
1733737247320	-0.0032043457	
1733737247321	-0.0063323975	
1733737247322	0.0031280518	
1733737247323	0.0036621094	
1733737247324	0.004043579	
1733737247325	0.0016021729	
1733737247326	-0.005493164	
1733737247327	-0.007095337	
1733737247328	-0.0025177002	
1733737247329	0.005569458	
1733737247330	0.006942749	
1733737247331	0.0030517578	
1733737247332	0.0016784668	
1733737247333	-0.0010681152	
1733737247334	-0.0029754639	
1733737247335	-0.00289917	
1733737247336	-0.005722046	
1733737247337	-4.5776367E-4	
1733737247338	0.0032806396	
1733737247339	-5.340576E-4	
1733737247340	-0.0037384033	
1733737247341	-6.1035156E-4	
1733737247342	-2.2888184E-4	
1733737247343	-0.0032043457	
1733737247344	3.0517578E-4	
1733737247345	-0.0016784668	
1733737247346	6.866455E-4	
1733737247347	0.0062561035	
1733737247348	0.0038146973	
1733737247349	0.0038909912	
1733737247350	-0.0032043457	
1733737247351	-0.0036621094	
1733737247352	0.0015258789	
1733737247353	-0.0030517578	
1733737247354	-5.340576E-4	
1733737247355	0.0020599365	
1733737247356	0.0032806396	
1733737247357	-0.0033569336	
1733737247358	-0.005340576	
1733737247359	-3.8146973E-4	
1733737247360	-7.6293945E-4	
1733737247361	-0.0020599365	
1733737247362	-0.0035095215	
1733737247363	-0.0019836426	
1733737247364	-0.0048828125	
1733737247365	-0.005645752	
1733737247366	-0.0018310547	
1733737247367	0.0035858154	
1733737247368	0.010604858	
1733737247369	0.00793457	
1733737247370	0.005264282	
1733737247371	0.0049591064	
1733737247372	-2.2888184E-4	
1733737247373	0.0033569336	
1733737247374	0.0038146973	
1733737247375	-0.0017547607	
1733737247376	-0.0011444092	
1733737247377	-7.6293945E-5	
1733737247378	-0.00289917	
1733737247379	-0.004272461	
1733737247380	0.002746582	
1733737247381	0.0018310547	
1733737247382	-0.0020599365	
1733737247383	0.0017547607	
1733737247384	0.004043579	
1733737247385	0.0029754639	
1733737247386	-0.0019836426	
1733737247387	0.0029754639	
1733737247388	0.0064849854	
1733737247389	7.6293945E-4	
1733737247390	0.0031280518	
1733737247391	0.006790161	
1733737247392	0.005340576	
1733737247393	0.0048828125	
1733737247394	0.001373291	
1733737247395	-0.0015258789	
1733737247396	-2.2888184E-4	
1733737247397	-0.0018310547	
1733737247398	-7.6293945E-5	
1733737247399	0.0064086914	
1733737247400	0.005722046	
1733737247401	-0.00289917	
1733737247402	-0.0035858154	
1733737247403	8.392334E-4	
1733737247404	-0.0012969971	
1733737247405	-0.0012207031	
1733737247406	-7.6293945E-4	
1733737247407	-0.007171631	
1733737247408	-0.010910034	
1733737247409	-0.010681152	
1733737247410	-0.0119018555	
1733737247411	-0.008621216	
1733737247412	-0.009841919	
1733737247413	-0.012435913	
1733737247414	-0.008544922	
1733737247415	-0.011062622	
1733737247416	-0.010528564	
1733737247417	-0.0063323975	
1733737247418	-0.008544922	
1733737247419	-0.0018310547	
1733737247420	0.0064086914	
1733737247421	0.005874634	
1733737247422	0.0049591064	
1733737247423	0.004348755	
1733737247424	0.0021362305	
1733737247425	0.004043579	
1733737247426	0.0066375732	
1733737247427	7.6293945E-5	
1733737247428	4.5776367E-4	
1733737247429	0.004196167	
1733737247430	1.5258789E-4	
1733737247431	0.006866455	
1733737247432	0.010070801	
1733737247433	0.008850098	
1733737247434	0.009460449	
1733737247435	0.0047302246	
1733737247436	0.003967285	
1733737247437	0.0037384033	
1733737247438	0.002746582	
1733737247439	0.00793457	
1733737247440	0.006942749	
1733737247441	0.0030517578	
1733737247442	0.0051879883	
1733737247443	0.0018310547	
1733737247444	-0.0033569336	
1733737247445	-0.0017547607	
1733737247446	0.0016784668	
1733737247447	0.0048065186	
1733737247448	0.00579834	
1733737247449	0.005493164	
1733737247450	0.005340576	
1733737247451	9.1552734E-4	
1733737247452	-0.0065612793	
1733737247453	-0.00793457	
1733737247454	-0.00541687	
1733737247455	-0.005645752	
1733737247456	-0.0029754639	
1733737247457	-0.0035858154	
1733737247458	-0.0032043457	
1733737247459	-7.6293945E-5	
1733737247460	-0.0035095215	
1733737247461	-0.0022125244	
1733737247462	0.0018310547	
1733737247463	9.918213E-4	
1733737247464	1.5258789E-4	
1733737247465	-0.0012969971	
1733737247466	-0.0016784668	
1733737247467	-0.0023651123	
1733737247468	-0.008163452	
1733737247469	-0.009231567	
1733737247470	-0.0048065186	
1733737247471	-0.0037384033	
1733737247472	6.866455E-4	
1733737247473	0.0016021729	
1733737247474	-0.0037384033	
1733737247475	0.0012207031	
1733737247476	0.0016021729	
1733737247477	-0.008392334	
1733737247478	-0.0048828125	
1733737247479	0.003967285	
1733737247480	0.013504028	
1733737247481	0.016174316	
1733737247482	-4.5776367E-4	
1733737247483	-0.0022125244	
1733737247484	0.0019073486	
1733737247485	-0.0022125244	
1733737247486	-0.0010681152	
1733737247487	-0.011672974	
1733737247488	-0.014953613	
1733737247489	-0.01083374	
1733737247490	-0.0037384033	
1733737247491	0.016326904	
1733737247492	0.025177002	
1733737247493	0.022735596	
1733737247494	0.0032806396	
1733737247495	-0.014343262	
1733737247496	-0.009841919	
1733737247497	-0.013580322	
1733737247498	-0.016098022	
1733737247499	-0.0077819824	
1733737247500	-0.010528564	
1733737247501	-0.014877319	
1733737247502	-0.010375977	
1733737247503	-0.0025177002	
1733737247504	0.008850098	
1733737247505	0.020217896	
1733737247506	0.02784729	
1733737247507	0.037384033	
1733737247508	0.0415802	
1733737247509	0.02571106	
1733737247510	0.009307861	
1733737247511	-0.0010681152	
1733737247512	-0.0066375732	
1733737247513	-0.002822876	
1733737247514	-0.015640259	
1733737247515	-0.028762817	
1733737247516	-0.027236938	
1733737247517	-0.016937256	
1733737247518	-0.0047302246	
1733737247519	-0.013198853	
1733737247520	-0.018081665	
1733737247521	-0.009155273	
1733737247522	0.0061035156	
1733737247523	0.009460449	
1733737247524	9.1552734E-4	
1733737247525	0.018920898	
1733737247526	0.019836426	
1733737247527	-5.340576E-4	
1733737247528	0.0035858154	
1733737247529	0.0038146973	
1733737247530	-0.006790161	
1733737247531	-0.014038086	
1733737247532	-0.016555786	
1733737247533	-0.010299683	
1733737247534	-0.0021362305	
1733737247535	-0.001373291	
1733737247536	-0.0020599365	
1733737247537	-0.0045776367	
1733737247538	-3.8146973E-4	
1733737247539	0.010070801	
1733737247540	0.007247925	
1733737247541	0.0012969971	
1733737247542	0.0048828125	
1733737247543	0.012359619	
1733737247544	0.0075531006	
1733737247545	-0.00579834	
1733737247546	-0.0049591064	
1733737247547	-4.5776367E-4	
1733737247548	0.0032806396	
1733737247549	0.0063323975	
1733737247550	0.005722046	
1733737247551	0.016860962	
1733737247552	0.025634766	
1733737247553	0.010757446	
1733737247554	-0.004119873	
1733737247555	-0.0034332275	
1733737247556	-0.009536743	
1733737247557	-0.009765625	
1733737247558	-0.00793457	
1733737247559	-0.014343262	
1733737247560	-0.0032043457	
1733737247561	0.0048828125	
1733737247562	0.0032043457	
1733737247563	0.0015258789	
1733737247564	-0.0047302246	
1733737247565	-0.002746582	
1733737247566	0.001449585	
1733737247567	0.0059509277	
1733737247568	0.0045776367	
1733737247569	-0.0030517578	
1733737247570	-3.0517578E-4	
1733737247571	0.0011444092	
1733737247572	0.0016784668	
1733737247573	0.00289917	
1733737247574	1.5258789E-4	
1733737247575	0.0012969971	
1733737247576	-0.004043579	
1733737247577	-0.011444092	
1733737247578	-0.005645752	
1733737247579	-0.0012207031	
1733737247580	-0.0031280518	
1733737247581	-0.0033569336	
1733737247582	-0.00831604	
1733737247583	-0.012130737	
1733737247584	-0.00579834	
1733737247585	0.0019073486	
1733737247586	0.004425049	
1733737247587	0.006790161	
1733737247588	0.0038909912	
1733737247589	-0.0045776367	
1733737247590	-0.0090789795	
1733737247591	-0.01159668	
1733737247592	-0.005569458	
1733737247593	7.6293945E-4	
1733737247594	0.005569458	
1733737247595	0.010910034	
1733737247596	0.006866455	
1733737247597	8.392334E-4	
1733737247598	-0.0038909912	
1733737247599	-0.0061798096	
1733737247600	-0.0011444092	
1733737247601	0.004196167	
1733737247602	0.005340576	
1733737247603	0.00793457	
1733737247604	0.005569458	
1733737247605	0.0	
1733737247606	-0.0019836426	
1733737247607	-0.004196167	
1733737247608	-5.340576E-4	
1733737247609	-0.001373291	
1733737247610	0.0025177002	
1733737247611	0.0074005127	
1733737247612	0.0016021729	
1733737247613	0.0029754639	
1733737247614	0.010528564	
1733737247615	0.010986328	
1733737247616	0.0047302246	
1733737247617	0.0046539307	
1733737247618	0.0046539307	
1733737247619	-0.002670288	
1733737247620	-0.010910034	
1733737247621	-0.013885498	
1733737247622	-0.0017547607	
1733737247623	0.0031280518	
1733737247624	-7.6293945E-4	
1733737247625	0.0023651123	
1733737247626	-0.004272461	
1733737247627	-0.013122559	
1733737247628	-0.018081665	
1733737247629	-0.025253296	
1733737247630	-0.026779175	
1733737247631	-0.018920898	
1733737247632	-0.0021362305	
1733737247633	0.010375977	
1733737247634	0.010757446	
1733737247635	0.019989014	
1733737247636	0.019836426	
1733737247637	0.014953613	
1733737247638	0.025558472	
1733737247639	0.032424927	
1733737247640	0.027160645	
1733737247641	0.024108887	
1733737247642	0.019378662	
1733737247643	0.018310547	
1733737247644	0.018234253	
1733737247645	0.012893677	
1733737247646	-0.001449585	
1733737247647	-0.009155273	
1733737247648	-0.006942749	
1733737247649	-0.0062561035	
1733737247650	-0.003967285	
1733737247651	-0.0074005127	
1733737247652	-0.0037384033	
1733737247653	-0.0019073486	
1733737247654	-0.007019043	
1733737247655	-0.010299683	
1733737247656	-0.023117065	
1733737247657	-0.027160645	
1733737247658	-0.028839111	
1733737247659	-0.036468506	
1733737247660	-0.03303528	
1733737247661	-0.03036499	
1733737247662	-0.020828247	
1733737247663	-0.004119873	
1733737247664	-0.012969971	
1733737247665	-0.024032593	
1733737247666	-0.015182495	
1733737247667	1.5258789E-4	
1733737247668	0.015945435	
1733737247669	0.012130737	
1733737247670	0.0038146973	
1733737247671	-0.0031280518	
1733737247672	-0.018539429	
1733737247673	-0.02708435	
1733737247674	-0.032196045	
1733737247675	-0.031433105	
1733737247676	-0.012054443	
1733737247677	0.0074005127	
1733737247678	0.018234253	
1733737247679	0.020065308	
1733737247680	0.01701355	
1733737247681	0.021209717	
1733737247682	0.021743774	
1733737247683	0.0315094	
1733737247684	0.044555664	
1733737247685	0.045700073	
1733737247686	0.045547485	
1733737247687	0.0415802	
1733737247688	0.034103394	
1733737247689	0.021820068	
1733737247690	0.015945435	
1733737247691	0.019683838	
1733737247692	0.009994507	
1733737247693	0.0012207031	
1733737247694	0.005493164	
1733737247695	0.00579834	
1733737247696	0.0064849854	
1733737247697	0.005493164	
1733737247698	0.0033569336	
1733737247699	0.0073242188	
1733737247700	0.0146484375	
1733737247701	0.022659302	
1733737247702	0.027618408	
1733737247703	0.020446777	
1733737247704	0.013046265	
1733737247705	0.014953613	
1733737247706	0.015335083	
1733737247707	0.0074005127	
1733737247708	-0.0061035156	
1733737247709	-0.011978149	
1733737247710	-0.030212402	
1733737247711	-0.06324768	
1733737247712	-0.08338928	
1733737247713	-0.103149414	
1733737247714	-0.1184082	
1733737247715	-0.12176514	
1733737247716	-0.12657166	
1733737247717	-0.10345459	
1733737247718	-0.061798096	
1733737247719	-0.027999878	
1733737247720	-0.004348755	
1733737247721	0.0031280518	
1733737247722	0.019073486	
1733737247723	0.029525757	
1733737247724	0.028152466	
1733737247725	0.04386902	
1733737247726	0.04776001	
1733737247727	0.04562378	
1733737247728	0.054626465	
1733737247729	0.056762695	
1733737247730	0.061264038	
1733737247731	0.061569214	
1733737247732	0.061950684	
1733737247733	0.056533813	
1733737247734	0.03463745	
1733737247735	0.030136108	
1733737247736	0.02746582	
1733737247737	0.013885498	
1733737247738	0.0118255615	
1733737247739	7.6293945E-4	
1733737247740	-0.010070801	
1733737247741	-0.011520386	
1733737247742	-0.016403198	
1733737247743	-0.008010864	
1733737247744	-0.0035095215	
1733737247745	-0.016326904	
1733737247746	-0.020141602	
1733737247747	-0.015792847	
1733737247748	-0.016860962	
1733737247749	-0.01739502	
1733737247750	-0.01159668	
1733737247751	-0.013656616	
1733737247752	-0.015563965	
1733737247753	-0.014801025	
1733737247754	-0.01586914	
1733737247755	-0.0020599365	
1733737247756	-0.00579834	
1733737247757	-0.0018310547	
1733737247758	0.0045776367	
1733737247759	0.012359619	
1733737247760	0.025558472	
1733737247761	0.023117065	
1733737247762	0.025024414	
1733737247763	0.023040771	
1733737247764	0.017623901	
1733737247765	0.021133423	
1733737247766	0.018234253	
1733737247767	0.012893677	
1733737247768	0.010681152	
1733737247769	0.013427734	
1733737247770	0.007247925	
1733737247771	0.008544922	
1733737247772	0.007095337	
1733737247773	-0.005874634	
1733737247774	-0.009689331	
1733737247775	-0.011062622	
1733737247776	-0.010070801	
1733737247777	-0.019683838	
1733737247778	-0.026931763	
1733737247779	-0.03112793	
1733737247780	-0.03730774	
1733737247781	-0.037612915	
1733737247782	-0.041046143	
1733737247783	-0.036315918	
1733737247784	-0.03387451	
1733737247785	-0.037002563	
1733737247786	-0.031204224	
1733737247787	-0.022506714	
1733737247788	-0.016479492	
1733737247789	-0.011672974	
1733737247790	-0.0076293945	
1733737247791	-0.008926392	
1733737247792	-0.007019043	
1733737247793	0.004501343	
1733737247794	0.008010864	
1733737247795	0.011749268	
1733737247796	0.019378662	
1733737247797	0.018615723	
1733737247798	0.023269653	
1733737247799	0.027236938	
1733737247800	0.02609253	
1733737247801	0.023269653	
1733737247802	0.01701355	
1733737247803	0.021896362	
1733737247804	0.029144287	
1733737247805	0.027618408	
1733737247806	0.026245117	
1733737247807	0.020980835	
1733737247808	0.017166138	
1733737247809	0.021820068	
1733737247810	0.017547607	
1733737247811	0.011367798	
1733737247812	0.007171631	
1733737247813	3.0517578E-4	
1733737247814	-2.2888184E-4	
1733737247815	-0.005569458	
1733737247816	-0.009994507	
1733737247817	-0.005874634	
1733737247818	-0.0077056885	
1733737247819	-0.01083374	
1733737247820	-0.012969971	
1733737247821	-0.0132751465	
1733737247822	-0.015335083	
1733737247823	-0.017089844	
1733737247824	-0.0074005127	
1733737247825	-0.00579834	
1733737247826	-0.015411377	
1733737247827	-0.013504028	
1733737247828	-0.0064086914	
1733737247829	-0.010910034	
1733737247830	-0.015182495	
1733737247831	-0.01083374	
1733737247832	-0.012893677	
1733737247833	-0.017623901	
1733737247834	-0.011444092	
1733737247835	-0.005264282	
1733737247836	-9.1552734E-4	
1733737247837	0.0073242188	
1733737247838	0.010757446	
1733737247839	0.008087158	
1733737247840	0.006866455	
1733737247841	0.005645752	
1733737247842	0.01159668	
1733737247843	0.010681152	
1733737247844	0.012969971	
1733737247845	0.026245117	
1733737247846	0.027389526	
1733737247847	0.028915405	
1733737247848	0.02319336	
1733737247849	0.017089844	
1733737247850	0.018310547	
1733737247851	-0.0020599365	
1733737247852	-0.008621216	
1733737247853	-0.0012969971	
1733737247854	-0.0012969971	
1733737247855	-9.1552734E-4	
1733737247856	-0.001449585	
1733737247857	-7.6293945E-5	
1733737247858	6.1035156E-4	
1733737247859	0.0016021729	
1733737247860	0.004119873	
1733737247861	3.8146973E-4	
1733737247862	-0.0146484375	
1733737247863	-0.02822876	
1733737247864	-0.02708435	
1733737247865	-0.019302368	
1733737247866	-0.01083374	
1733737247867	-0.00579834	
1733737247868	0.0024414062	
1733737247869	0.011520386	
1733737247870	-2.2888184E-4	
1733737247871	-0.016937256	
1733737247872	-0.023803711	
1733737247873	-0.024414062	
1733737247874	-0.02708435	
1733737247875	-0.020980835	
1733737247876	-0.0025177002	
1733737247877	0.010681152	
1733737247878	0.02319336	
1733737247879	0.018844604	
1733737247880	-0.0075531006	
1733737247881	-0.015640259	
1733737247882	-0.021514893	
1733737247883	-0.016555786	
1733737247884	-0.011062622	
1733737247885	-0.024490356	
1733737247886	-0.017471313	
1733737247887	-0.010147095	
1733737247888	-0.018310547	
1733737247889	-0.015029907	
1733737247890	-0.0118255615	
1733737247891	0.004272461	
1733737247892	6.1035156E-4	
1733737247893	-0.0074005127	
1733737247894	0.012741089	
1733737247895	0.02067566	
1733737247896	0.02243042	
1733737247897	0.028076172	
1733737247898	0.034561157	
1733737247899	0.033950806	
1733737247900	0.03265381	
1733737247901	0.036087036	
1733737247902	0.035858154	
1733737247903	0.041046143	
1733737247904	0.047073364	
1733737247905	0.04814148	
1733737247906	0.04798889	
1733737247907	0.027770996	
1733737247908	0.015411377	
1733737247909	0.010910034	
1733737247910	-0.0077056885	
1733737247911	-0.010375977	
1733737247912	-0.023651123	
1733737247913	-0.029220581	
1733737247914	-0.017852783	
1733737247915	-0.023651123	
1733737247916	-0.015029907	
1733737247917	-0.014343262	
1733737247918	-0.024490356	
1733737247919	-0.02204895	
1733737247920	-0.025100708	
1733737247921	-0.032424927	
1733737247922	-0.03425598	
1733737247923	-0.025558472	
1733737247924	-0.028457642	
1733737247925	-0.04096985	
1733737247926	-0.029754639	
1733737247927	-0.009460449	
1733737247928	-0.00831604	
1733737247929	-0.0048828125	
1733737247930	0.0090789795	
1733737247931	0.026245117	
1733737247932	0.03692627	
1733737247933	0.031661987	
1733737247934	0.01739502	
1733737247935	-0.0033569336	
1733737247936	-0.008544922	
1733737247937	0.004043579	
1733737247938	0.008239746	
1733737247939	0.005645752	
1733737247940	-0.012054443	
1733737247941	-0.0146484375	
1733737247942	-0.004425049	
1733737247943	-0.009613037	
1733737247944	0.0076293945	
1733737247945	0.01335144	
1733737247946	0.002746582	
1733737247947	0.009231567	
1733737247948	0.0061798096	
1733737247949	0.00793457	
1733737247950	0.013961792	
1733737247951	0.024108887	
1733737247952	0.029449463	
1733737247953	0.011444092	
1733737247954	-5.340576E-4	
1733737247955	-0.022201538	
1733737247956	-0.021743774	
1733737247957	0.0015258789	
1733737247958	-0.012588501	
1733737247959	-0.023422241	
1733737247960	-0.02418518	
1733737247961	-0.018310547	
1733737247962	-0.0035858154	
1733737247963	-0.004348755	
1733737247964	-0.0038146973	
1733737247965	-0.0048065186	
1733737247966	-0.006942749	
1733737247967	0.0035858154	
1733737247968	0.0062561035	
1733737247969	0.0020599365	
1733737247970	0.012588501	
1733737247971	0.02281189	
1733737247972	0.019607544	
1733737247973	0.008468628	
1733737247974	0.0035095215	
1733737247975	0.026931763	
1733737247976	0.029449463	
1733737247977	0.0022125244	
1733737247978	0.00579834	
1733737247979	0.0048828125	
1733737247980	-0.00289917	
1733737247981	0.011062622	
1733737247982	-2.2888184E-4	
1733737247983	-0.025634766	
1733737247984	-0.012512207	
1733737247985	7.6293945E-5	
1733737247986	0.0059509277	
1733737247987	0.023727417	
1733737247988	0.017623901	
1733737247989	-0.0051879883	
1733737247990	-0.019760132	
1733737247991	-0.027923584	
1733737247992	-0.025024414	
1733737247993	-0.009231567	
1733737247994	-0.0063323975	
1733737247995	-0.028381348	
1733737247996	-0.051116943	
1733737247997	-0.039978027	
1733737247998	-0.010147095	
1733737247999	0.014190674	
1733737248000	0.039901733	
1733737248001	0.034179688	
1733737248002	0.007171631	
1733737248003	-0.009536743	
1733737248004	-0.014343262	
1733737248005	-0.001373291	
1733737248006	0.0016784668	
1733737248007	0.00289917	
1733737248008	-0.0048828125	
1733737248009	0.013198853	
1733737248010	0.036392212	
1733737248011	-0.004425049	
1733737248012	-0.016860962	
1733737248013	-0.011062622	
1733737248014	-0.021896362	
1733737248015	0.011520386	
1733737248016	0.047912598	
1733737248017	0.058517456	
1733737248018	0.06607056	
1733737248019	0.076675415	
1733737248020	0.03829956	
1733737248021	-0.020828247	
1733737248022	-0.03593445	
1733737248023	-0.043258667	
1733737248024	-0.03845215	
1733737248025	-0.03265381	
1733737248026	-0.03479004	
1733737248027	-0.010757446	
1733737248028	0.0010681152	
1733737248029	0.010681152	
1733737248030	0.01159668	
1733737248031	-0.014572144	
1733737248032	-0.034713745	
1733737248033	-0.027999878	
1733737248034	0.004043579	
1733737248035	0.006713867	
1733737248036	0.012741089	
1733737248037	0.013427734	
1733737248038	-0.0022125244	
1733737248039	0.015258789	
1733737248040	-0.01373291	
1733737248041	-0.044555664	
1733737248042	-0.009384155	
1733737248043	0.0048828125	
1733737248044	0.010375977	
1733737248045	0.036849976	
1733737248046	0.038375854	
1733737248047	0.052642822	
1733737248048	0.056228638	
1733737248049	0.012969971	
1733737248050	-0.024261475	
1733737248051	-0.07247925	
1733737248052	-0.062408447	
1733737248053	0.028686523	
1733737248054	0.029373169	
1733737248055	-0.0541687	
1733737248056	-0.1020813	
1733737248057	-0.10772705	
1733737248058	-0.08781433	
1733737248059	-0.03112793	
1733737248060	0.017242432	
1733737248061	0.012817383	
1733737248062	-2.2888184E-4	
1733737248063	0.019378662	
1733737248064	0.058746338	
1733737248065	0.08735657	
1733737248066	0.074539185	
1733737248067	0.07080078	
1733737248068	0.13771057	
1733737248069	0.18112183	
1733737248070	0.111312866	
1733737248071	-0.01914978	
1733737248072	-0.13542175	
1733737248073	-0.12802124	
1733737248074	-0.029907227	
1733737248075	-0.0016021729	
1733737248076	0.021743774	
1733737248077	0.021133423	
1733737248078	-0.09559631	
1733737248079	-0.14160156	
1733737248080	-0.1360321	
1733737248081	-0.12145996	
1733737248082	-0.027694702	
1733737248083	0.018005371	
1733737248084	-0.005874634	
1733737248085	0.018539429	
1733737248086	0.08934021	
1733737248087	0.11451721	
1733737248088	0.23292542	
1733737248089	0.34339905	
1733737248090	0.16181946	
1733737248091	-0.062179565	
1733737248092	-0.10635376	
1733737248093	-0.08842468	
1733737248094	-0.01739502	
1733737248095	0.13923645	
1733737248096	0.17471313	
1733737248097	0.038909912	
1733737248098	-0.115737915	
1733737248099	-0.2811432	
1733737248100	-0.37773132	
1733737248101	-0.40794373	
1733737248102	-0.3048706	
1733737248103	-0.009536743	
1733737248104	0.15098572	
1733737248105	0.17227173	
1733737248106	0.21766663	
1733737248107	0.19836426	
1733737248108	0.051345825	
1733737248109	-0.06599426	
1733737248110	-0.0579834	
1733737248111	-0.0868988	
1733737248112	-0.048828125	
1733737248113	0.086517334	
1733737248114	0.12298584	
1733737248115	0.121154785	
1733737248116	0.097732544	
1733737248117	0.096206665	
1733737248118	0.09109497	
1733737248119	0.023345947	
1733737248120	-0.026321411	
1733737248121	-0.14640808	
1733737248122	-0.13420105	
1733737248123	0.03463745	
1733737248124	0.01083374	
1733737248125	-0.14839172	
1733737248126	-0.19042969	
1733737248127	-0.09925842	
1733737248128	-0.047073364	
1733737248129	-0.13374329	
1733737248130	-0.15830994	
1733737248131	-0.018997192	
1733737248132	0.14228821	
1733737248133	0.20957947	
1733737248134	0.24971008	
1733737248135	0.2620697	
1733737248136	0.11383057	
1733737248137	-0.027770996	
1733737248138	-0.078048706	
1733737248139	-0.09277344	
1733737248140	-0.020828247	
1733737248141	0.033111572	
1733737248142	0.065460205	
1733737248143	0.14640808	
1733737248144	0.19592285	
1733737248145	0.20355225	
1733737248146	0.11932373	
1733737248147	-0.018005371	
1733737248148	-0.04295349	
1733737248149	0.0046539307	
1733737248150	-0.111846924	
1733737248151	-0.2558136	
1733737248152	-0.1335144	
1733737248153	-0.119781494	
1733737248154	-0.2456665	
1733737248155	-0.17745972	
1733737248156	-0.08720398	
1733737248157	-0.08338928	
1733737248158	-0.09803772	
1733737248159	-0.06454468	
1733737248160	-0.048446655	
1733737248161	-0.028305054	
1733737248162	0.06317139	
1733737248163	0.03074646	
1733737248164	-0.041122437	
1733737248165	-0.044784546	
1733737248166	-0.028915405	
1733737248167	0.043411255	
1733737248168	0.17570496	
1733737248169	0.40550232	
1733737248170	0.5748749	
1733737248171	0.4308319	
1733737248172	0.08544922	
1733737248173	-0.13137817	
1733737248174	-0.18173218	
1733737248175	-0.18447876	
1733737248176	-0.1436615	
1733737248177	-0.09147644	
1733737248178	-0.05859375	
1733737248179	-0.0048065186	
1733737248180	0.10765076	
1733737248181	0.04798889	
1733737248182	-0.13427734	
1733737248183	-0.17562866	
1733737248184	-0.29312134	
1733737248185	-0.30136108	
1733737248186	0.03768921	
1733737248187	0.1499939	
1733737248188	-0.06088257	
1733737248189	-0.20118713	
1733737248190	-0.19065857	
1733737248191	-0.057754517	
1733737248192	0.04135132	
1733737248193	0.12496948	
1733737248194	0.2166748	
1733737248195	0.21980286	
1733737248196	0.1714325	
1733737248197	0.10246277	
1733737248198	0.12283325	
1733737248199	0.19943237	
1733737248200	0.16952515	
1733737248201	0.12542725	
1733737248202	0.10261536	
1733737248203	0.05142212	
1733737248204	0.020828247	
1733737248205	-0.005645752	
1733737248206	-0.034484863	
1733737248207	-0.05958557	
1733737248208	-0.06668091	
1733737248209	-0.064468384	
1733737248210	-0.08018494	
1733737248211	-0.09162903	
1733737248212	-0.1096344	
1733737248213	-0.13023376	
1733737248214	-0.1159668	
1733737248215	-0.08735657	
1733737248216	-0.07965088	
1733737248217	-0.07156372	
1733737248218	-0.06225586	
1733737248219	-0.056915283	
1733737248220	-0.038909912	
1733737248221	-0.034866333	
1733737248222	-0.03250122	
1733737248223	-0.0064849854	
1733737248224	0.007095337	
1733737248225	0.010375977	
1733737248226	0.018692017	
1733737248227	0.028152466	
1733737248228	0.020751953	
1733737248229	0.02418518	
1733737248230	0.04425049	
1733737248231	0.03326416	
1733737248232	0.033111572	
1733737248233	0.033798218	
1733737248234	0.034713745	
1733737248235	0.039215088	
1733737248236	0.033493042	
1733737248237	0.03967285	
1733737248238	0.033187866	
1733737248239	0.02204895	
1733737248240	0.01953125	
1733737248241	0.015258789	
1733737248242	0.015335083	
1733737248243	0.011672974	
1733737248244	0.014572144	
1733737248245	0.012435913	
1733737248246	8.392334E-4	
1733737248247	-0.0022888184	
1733737248248	0.00289917	
1733737248249	-0.0060272217	
1733737248250	4.5776367E-4	
1733737248251	0.018997192	
1733737248252	0.015106201	
1733737248253	0.01083374	
1733737248254	0.012817383	
1733737248255	0.0034332275	
1733737248256	0.014266968	
1733737248257	0.019836426	
1733737248258	0.008468628	
1733737248259	0.011138916	
1733737248260	0.001449585	
1733737248261	-0.011138916	
1733737248262	-0.018005371	
1733737248263	-0.024795532	
1733737248264	-0.02128601	
1733737248265	-0.022964478	
1733737248266	-0.030288696	
1733737248267	-0.02281189	
1733737248268	-0.027542114	
1733737248269	-0.025177002	
1733737248270	-0.035095215	
1733737248271	-0.047836304	
1733737248272	-0.040359497	
1733737248273	-0.039520264	
1733737248274	-0.036621094	
1733737248275	-0.02166748	
1733737248276	-0.0047302246	
1733737248277	-0.003967285	
1733737248278	0.0118255615	
1733737248279	0.026550293	
1733737248280	0.022277832	
1733737248281	0.02456665	
1733737248282	0.019607544	
1733737248283	0.0104522705	
1733737248284	0.013122559	
1733737248285	0.021591187	
1733737248286	0.022888184	
1733737248287	0.018615723	
1733737248288	0.01083374	
1733737248289	-0.001373291	
1733737248290	0.008926392	
1733737248291	0.024032593	
1733737248292	0.027923584	
1733737248293	0.022888184	
1733737248294	0.020446777	
1733737248295	0.02418518	
1733737248296	0.013961792	
1733737248297	0.005874634	
1733737248298	0.009994507	
1733737248299	0.009918213	
1733737248300	0.0022125244	
1733737248301	-0.01083374	
1733737248302	-0.016860962	
1733737248303	-0.011749268	
1733737248304	-0.003967285	
1733737248305	-0.012207031	
1733737248306	-0.014419556	
1733737248307	-0.009307861	
1733737248308	-0.020370483	
1733737248309	-0.02243042	
1733737248310	-0.0146484375	
1733737248311	-0.014419556	
1733737248312	-0.011138916	
1733737248313	-0.012512207	
1733737248314	-0.006790161	
1733737248315	0.0059509277	
1733737248316	0.004196167	
1733737248317	-0.0038146973	
1733737248318	-0.002670288	
1733737248319	-0.005340576	
1733737248320	-0.0038909912	
1733737248321	-0.0031280518	
1733737248322	-0.012359619	
1733737248323	-0.007858276	
1733737248324	0.004501343	
1733737248325	0.014266968	
1733737248326	0.016555786	
1733737248327	0.007171631	
1733737248328	0.005340576	
1733737248329	0.0018310547	
1733737248330	0.0012207031	
1733737248331	0.0021362305	
1733737248332	0.0030517578	
1733737248333	0.002670288	
1733737248334	7.6293945E-4	
1733737248335	-0.0038909912	
1733737248336	-0.0035858154	
1733737248337	0.0036621094	
1733737248338	0.0038146973	
1733737248339	9.1552734E-4	
1733737248340	-0.0031280518	
1733737248341	-0.0063323975	
1733737248342	-0.0064849854	
1733737248343	-0.008392334	
1733737248344	-0.014419556	
1733737248345	-0.016098022	
1733737248346	-0.0047302246	
1733737248347	-9.1552734E-4	
1733737248348	0.0012969971	
1733737248349	0.011367798	
1733737248350	0.0118255615	
1733737248351	0.0104522705	
1733737248352	0.016326904	
1733737248353	0.016937256	
1733737248354	0.014953613	
1733737248355	0.015716553	
1733737248356	0.0146484375	
1733737248357	0.014801025	
1733737248358	0.008163452	
1733737248359	-0.005340576	
1733737248360	-0.010910034	
1733737248361	-0.0062561035	
1733737248362	0.008773804	
1733737248363	0.010910034	
1733737248364	-0.0022888184	
1733737248365	-0.007019043	
1733737248366	-0.011367798	
1733737248367	-0.00831604	
1733737248368	-0.006790161	
1733737248369	-0.010604858	
1733737248370	-0.007019043	
1733737248371	-0.010528564	
1733737248372	-0.017929077	
1733737248373	-0.021820068	
1733737248374	-0.01083374	
1733737248375	-0.010757446	
1733737248376	-0.015487671	
1733737248377	-0.016403198	
1733737248378	-0.023040771	
1733737248379	-0.01991272	
1733737248380	-0.021743774	
1733737248381	-0.01739502	
1733737248382	-0.0062561035	
1733737248383	-0.008392334	
1733737248384	-0.0021362305	
1733737248385	-0.0051879883	
1733737248386	-0.011978149	
1733737248387	-3.0517578E-4	
1733737248388	0.0063323975	
1733737248389	0.021896362	
1733737248390	0.030517578	
1733737248391	0.04852295	
1733737248392	0.047912598	
1733737248393	0.04798889	
1733737248394	0.055847168	
1733737248395	0.047073364	
1733737248396	0.049209595	
1733737248397	0.049057007	
1733737248398	0.053253174	
1733737248399	0.04951477	
1733737248400	0.04310608	
1733737248401	0.032043457	
1733737248402	0.011138916	
1733737248403	0.007095337	
1733737248404	-0.0011444092	
1733737248405	-0.014877319	
1733737248406	-0.018081665	
1733737248407	-0.030059814	
1733737248408	-0.042877197	
1733737248409	-0.041275024	
1733737248410	-0.050048828	
1733737248411	-0.06477356	
1733737248412	-0.059051514	
1733737248413	-0.06858826	
1733737248414	-0.056381226	
1733737248415	-0.050964355	
1733737248416	-0.051116943	
1733737248417	-0.03303528	
1733737248418	-0.034484863	
1733737248419	-0.020523071	
1733737248420	-0.010223389	
1733737248421	-0.0046539307	
1733737248422	-1.5258789E-4	
1733737248423	0.0017547607	
1733737248424	0.0064849854	
1733737248425	0.006942749	
1733737248426	0.0031280518	
1733737248427	0.00579834	
1733737248428	0.0077819824	
1733737248429	0.0012969971	
1733737248430	2.2888184E-4	
1733737248431	0.0035858154	
1733737248432	0.0065612793	
1733737248433	0.012817383	
1733737248434	0.016098022	
1733737248435	0.008010864	
1733737248436	0.0118255615	
1733737248437	0.021972656	
1733737248438	0.021209717	
1733737248439	0.018463135	
1733737248440	0.01739502	
1733737248441	0.013122559	
1733737248442	0.00869751	
1733737248443	0.015792847	
1733737248444	0.015563965	
1733737248445	0.011367798	
1733737248446	0.013656616	
1733737248447	0.010528564	
1733737248448	0.0146484375	
1733737248449	0.019454956	
1733737248450	0.01739502	
1733737248451	0.011367798	
1733737248452	0.01083374	
1733737248453	0.022583008	
1733737248454	0.027236938	
1733737248455	0.021972656	
1733737248456	0.025634766	
1733737248457	0.017852783	
1733737248458	0.015411377	
1733737248459	0.009841919	
1733737248460	0.0046539307	
1733737248461	0.009460449	
1733737248462	0.002822876	
1733737248463	0.0063323975	
1733737248464	0.009918213	
1733737248465	0.0104522705	
1733737248466	0.006942749	
1733737248467	0.0048065186	
1733737248468	0.007858276	
1733737248469	-0.009460449	
1733737248470	-0.010375977	
1733737248471	-0.007247925	
1733737248472	-0.015563965	
1733737248473	-0.017471313	
1733737248474	-0.035476685	
1733737248475	-0.054855347	
1733737248476	-0.066223145	
1733737248477	-0.08476257	
1733737248478	-0.09979248	
1733737248479	-0.10139465	
1733737248480	-0.09902954	
1733737248481	-0.09269714	
1733737248482	-0.079956055	
1733737248483	-0.06439209	
1733737248484	-0.044631958	
1733737248485	-0.02128601	
1733737248486	0.00289917	
1733737248487	0.018997192	
1733737248488	0.035476685	
1733737248489	0.04776001	
1733737248490	0.056991577	
1733737248491	0.0730896	
1733737248492	0.07347107	
1733737248493	0.0756073	
1733737248494	0.0843811	
1733737248495	0.08590698	
1733737248496	0.08354187	
1733737248497	0.066833496	
1733737248498	0.05645752	
1733737248499	0.05722046	
1733737248500	0.04196167	
1733737248501	0.025100708	
1733737248502	0.009307861	
1733737248503	-0.0011444092	
1733737248504	0.004348755	
1733737248505	0.0010681152	
1733737248506	-0.010147095	
1733737248507	-0.014953613	
1733737248508	-0.022888184	
1733737248509	-0.034942627	
1733737248510	-0.03303528	
1733737248511	-0.018920898	
1733737248512	-0.009765625	
1733737248513	-0.006866455	
1733737248514	-0.020065308	
1733737248515	-0.047607422	
1733737248516	-0.062942505	
1733737248517	-0.044784546	
1733737248518	-0.018615723	
1733737248519	-0.01991272	
1733737248520	-0.016860962	
1733737248521	-0.00793457	
1733737248522	-0.0118255615	
1733737248523	-0.011062622	
1733737248524	-0.011520386	
1733737248525	-0.006866455	
1733737248526	0.0016021729	
1733737248527	0.0038909912	
1733737248528	0.006866455	
1733737248529	0.0025939941	
1733737248530	0.0010681152	
1733737248531	0.012283325	
1733737248532	0.0077056885	
1733737248533	0.0	
1733737248534	0.008010864	
1733737248535	0.0132751465	
1733737248536	0.025024414	
1733737248537	0.029830933	
1733737248538	0.033111572	
1733737248539	0.03440857	
1733737248540	0.04135132	
1733737248541	0.048599243	
1733737248542	0.04714966	
1733737248543	0.045394897	
1733737248544	0.033721924	
1733737248545	0.025253296	
1733737248546	0.019302368	
1733737248547	0.015487671	
1733737248548	0.016860962	
1733737248549	0.00793457	
1733737248550	-0.006790161	
1733737248551	-0.023651123	
1733737248552	-0.038223267	
1733737248553	-0.037078857	
1733737248554	-0.045394897	
1733737248555	-0.05760193	
1733737248556	-0.063705444	
1733737248557	-0.06149292	
1733737248558	-0.039367676	
1733737248559	-0.005493164	
1733737248560	-0.0025177002	
1733737248561	-0.04333496	
1733737248562	-0.061950684	
1733737248563	-0.063705444	
1733737248564	-0.056610107	
1733737248565	-0.030593872	
1733737248566	-0.025177002	
1733737248567	-0.030441284	
1733737248568	-0.021057129	
1733737248569	-0.011138916	
1733737248570	-0.014343262	
1733737248571	-0.0031280518	
1733737248572	-0.0032806396	
1733737248573	-0.005722046	
1733737248574	0.015411377	
1733737248575	0.0119018555	
1733737248576	0.010147095	
1733737248577	0.030517578	
1733737248578	0.020751953	
1733737248579	0.036315918	
1733737248580	0.022277832	
1733737248581	0.019683838	
1733737248582	0.046539307	
1733737248583	0.05531311	
1733737248584	0.07408142	
1733737248585	0.053710938	
1733737248586	0.044937134	
1733737248587	0.028686523	
1733737248588	0.032348633	
1733737248589	0.07293701	
1733737248590	0.05180359	
1733737248591	0.046310425	
1733737248592	0.041809082	
1733737248593	0.028686523	
1733737248594	0.026779175	
1733737248595	0.017929077	
1733737248596	0.010681152	
1733737248597	-0.0060272217	
1733737248598	-0.016479492	
1733737248599	-0.008163452	
1733737248600	-0.016555786	
1733737248601	-0.018463135	
1733737248602	-0.01625061	
1733737248603	-0.031814575	
1733737248604	-0.03517151	
1733737248605	-0.03425598	
1733737248606	-0.037612915	
1733737248607	-0.030670166	
1733737248608	-0.028381348	
1733737248609	-0.033340454	
1733737248610	-0.032043457	
1733737248611	-0.03364563	
1733737248612	-0.03288269	
1733737248613	-0.024337769	
1733737248614	-0.020446777	
1733737248615	-0.011291504	
1733737248616	0.0012207031	
1733737248617	0.0034332275	
1733737248618	0.008773804	
1733737248619	0.007247925	
1733737248620	-0.0024414062	
1733737248621	-0.0021362305	
1733737248622	-0.0025939941	
1733737248623	0.003967285	
1733737248624	0.010986328	
1733737248625	0.019760132	
1733737248626	0.027008057	
1733737248627	0.022125244	
1733737248628	0.016555786	
1733737248629	0.009460449	
1733737248630	0.0065612793	
1733737248631	-0.0062561035	
1733737248632	-0.01663208	
1733737248633	-0.0340271	
1733737248634	-0.046157837	
1733737248635	-0.04547119	
1733737248636	-0.059051514	
1733737248637	-0.06385803	
1733737248638	-0.048828125	
1733737248639	-0.03845215	
1733737248640	-0.027923584	
1733737248641	-0.0030517578	
1733737248642	-0.0012969971	
1733737248643	0.008239746	
1733737248644	0.019454956	
1733737248645	0.02861023	
1733737248646	0.048675537	
1733737248647	0.038909912	
1733737248648	0.036697388	
1733737248649	0.036315918	
1733737248650	0.047683716	
1733737248651	0.06309509	
1733737248652	0.05432129	
1733737248653	0.034942627	
1733737248654	0.033111572	
1733737248655	0.03189087	
1733737248656	0.031280518	
1733737248657	0.033111572	
1733737248658	0.031661987	
1733737248659	0.028839111	
1733737248660	0.021057129	
1733737248661	0.015487671	
1733737248662	0.009384155	
1733737248663	-0.0012207031	
1733737248664	-0.0051116943	
1733737248665	-0.01739502	
1733737248666	-0.028381348	
1733737248667	-0.024871826	
1733737248668	-0.02281189	
1733737248669	-0.01159668	
1733737248670	-0.014724731	
1733737248671	-0.010986328	
1733737248672	-0.013198853	
1733737248673	-0.023117065	
1733737248674	-0.030059814	
1733737248675	-0.04272461	
1733737248676	-0.048599243	
1733737248677	-0.051574707	
1733737248678	-0.044784546	
1733737248679	-0.03211975	
1733737248680	-0.01991272	
1733737248681	-6.1035156E-4	
1733737248682	-0.004425049	
1733737248683	-0.015029907	
1733737248684	-0.013046265	
1733737248685	-0.012893677	
1733737248686	-0.011978149	
1733737248687	-0.015182495	
1733737248688	0.0012969971	
1733737248689	0.017242432	
1733737248690	0.015258789	
1733737248691	0.024108887	
1733737248692	0.030212402	
1733737248693	0.02784729	
1733737248694	0.02166748	
1733737248695	0.014038086	
1733737248696	0.0035095215	
1733737248697	6.1035156E-4	
1733737248698	0.009002686	
1733737248699	0.010147095	
1733737248700	0.018615723	
1733737248701	0.039978027	
1733737248702	0.059127808	
1733737248703	0.05378723	
1733737248704	0.03715515	
1733737248705	0.018692017	
1733737248706	0.012130737	
1733737248707	0.015716553	
1733737248708	-0.0024414062	
1733737248709	-0.015182495	
1733737248710	-0.025939941	
1733737248711	-0.033569336	
1733737248712	-0.014572144	
1733737248713	-0.00869751	
1733737248714	-0.014343262	
1733737248715	0.016860962	
1733737248716	0.043945312	
1733737248717	0.03677368	
1733737248718	0.031814575	
1733737248719	0.021209717	
1733737248720	0.0025177002	
1733737248721	-0.012512207	
1733737248722	-0.025177002	
1733737248723	-0.03463745	
1733737248724	-0.04386902	
1733737248725	-0.038909912	
1733737248726	-0.035247803	
1733737248727	-0.050048828	
1733737248728	-0.06996155	
1733737248729	-0.06736755	
1733737248730	-0.056915283	
1733737248731	-0.0617218	
1733737248732	-0.07003784	
1733737248733	-0.0579834	
1733737248734	-0.04486084	
1733737248735	-0.030670166	
1733737248736	-0.026779175	
1733737248737	-0.010910034	
1733737248738	-0.006790161	
1733737248739	-0.005264282	
1733737248740	0.016479492	
1733737248741	0.029067993	
1733737248742	0.036010742	
1733737248743	0.040664673	
1733737248744	0.055389404	
1733737248745	0.053482056	
1733737248746	0.03288269	
1733737248747	0.051956177	
1733737248748	0.08155823	
1733737248749	0.096588135	
1733737248750	0.10345459	
1733737248751	0.099868774	
1733737248752	0.09124756	
1733737248753	0.06645203	
1733737248754	0.044326782	
1733737248755	0.038223267	
1733737248756	0.026931763	
1733737248757	0.013656616	
1733737248758	0.007171631	
1733737248759	0.0023651123	
1733737248760	0.00869751	
1733737248761	0.012283325	
1733737248762	0.009155273	
1733737248763	3.0517578E-4	
1733737248764	-0.01663208	
1733737248765	-0.027313232	
1733737248766	-0.03074646	
1733737248767	-0.030441284	
1733737248768	-0.031814575	
1733737248769	-0.037841797	
1733737248770	-0.04272461	
1733737248771	-0.05088806	
1733737248772	-0.06568909	
1733737248773	-0.06484985	
1733737248774	-0.062942505	
1733737248775	-0.065460205	
1733737248776	-0.0680542	
1733737248777	-0.072784424	
1733737248778	-0.06752014	
1733737248779	-0.039520264	
1733737248780	-0.02456665	
1733737248781	-0.024490356	
1733737248782	-0.018997192	
1733737248783	-0.012054443	
1733737248784	-0.006713867	
1733737248785	-0.013885498	
1733737248786	-0.025863647	
1733737248787	-0.034103394	
1733737248788	-0.023117065	
1733737248789	0.002670288	
1733737248790	0.01083374	
1733737248791	0.016555786	
1733737248792	0.027542114	
1733737248793	0.035858154	
1733737248794	0.047073364	
1733737248795	0.043029785	
1733737248796	0.045928955	
1733737248797	0.05859375	
1733737248798	0.052108765	
1733737248799	0.045547485	
1733737248800	0.0466156	
1733737248801	0.060653687	
1733737248802	0.07194519	
1733737248803	0.064697266	
1733737248804	0.06568909	
1733737248805	0.07118225	
1733737248806	0.060424805	
1733737248807	0.033798218	
1733737248808	0.0016784668	
1733737248809	-0.02067566	
1733737248810	-0.028381348	
1733737248811	-0.027694702	
1733737248812	-0.026626587	
1733737248813	-0.03173828	
1733737248814	-0.04386902	
1733737248815	-0.061798096	
1733737248816	-0.07461548	
1733737248817	-0.09819031	
1733737248818	-0.13572693	
1733737248819	-0.12886047	
1733737248820	-0.106048584	
1733737248821	-0.08468628	
1733737248822	-0.020370483	
1733737248823	0.022125244	
1733737248824	0.05050659	
1733737248825	0.08308411	
1733737248826	0.079193115	
1733737248827	0.0881958	
1733737248828	0.094680786	
1733737248829	0.089035034	
1733737248830	0.091552734	
1733737248831	0.08552551	
1733737248832	0.07911682	
1733737248833	0.08682251	
1733737248834	0.08628845	
1733737248835	0.055770874	
1733737248836	0.03303528	
1733737248837	0.01953125	
1733737248838	-7.6293945E-5	
1733737248839	-0.013427734	
1733737248840	-0.025405884	
1733737248841	-0.037994385	
1733737248842	-0.06187439	
1733737248843	-0.074157715	
1733737248844	-0.074539185	
1733737248845	-0.0907135	
1733737248846	-0.11238098	
1733737248847	-0.13328552	
1733737248848	-0.15480042	
1733737248849	-0.17303467	
1733737248850	-0.17059326	
1733737248851	-0.15716553	
1733737248852	-0.16098022	
1733737248853	-0.14076233	
1733737248854	-0.08476257	
1733737248855	-0.036849976	
1733737248856	0.0016784668	
1733737248857	0.045013428	
1733737248858	0.09513855	
1733737248859	0.15441895	
1733737248860	0.18676758	
1733737248861	0.20225525	
1733737248862	0.21987915	
1733737248863	0.20011902	
1733737248864	0.19454956	
1733737248865	0.18043518	
1733737248866	0.15403748	
1733737248867	0.13465881	
1733737248868	0.09010315	
1733737248869	0.059127808	
1733737248870	0.030670166	
1733737248871	-0.0034332275	
1733737248872	-0.020141602	
1733737248873	-0.048446655	
1733737248874	-0.05973816	
1733737248875	-0.07484436	
1733737248876	-0.08766174	
1733737248877	-0.10597229	
1733737248878	-0.11764526	
1733737248879	-0.122909546	
1733737248880	-0.10475159	
1733737248881	-0.091934204	
1733737248882	-0.091934204	
1733737248883	-0.07141113	
1733737248884	-0.05859375	
1733737248885	-0.0440979	
1733737248886	-0.034942627	
1733737248887	-0.022659302	
1733737248888	3.0517578E-4	
1733737248889	0.012207031	
1733737248890	0.03135681	
1733737248891	0.044326782	
1733737248892	0.052719116	
1733737248893	0.05722046	
1733737248894	0.059814453	
1733737248895	0.06340027	
1733737248896	0.06752014	
1733737248897	0.055999756	
1733737248898	0.073013306	
1733737248899	0.071258545	
1733737248900	0.06530762	
1733737248901	0.07019043	
1733737248902	0.04814148	
1733737248903	0.030899048	
1733737248904	0.012435913	
1733737248905	-0.010147095	
1733737248906	-0.023269653	
1733737248907	-0.03967285	
1733737248908	-0.060424805	
1733737248909	-0.08468628	
1733737248910	-0.10040283	
1733737248911	-0.11054993	
1733737248912	-0.12863159	
1733737248913	-0.13763428	
1733737248914	-0.12336731	
1733737248915	-0.10284424	
1733737248916	-0.07904053	
1733737248917	-0.062942505	
1733737248918	-0.052261353	
1733737248919	-0.037002563	
1733737248920	-0.031280518	
1733737248921	-0.0104522705	
1733737248922	0.012588501	
1733737248923	0.029373169	
1733737248924	0.05104065	
1733737248925	0.05470276	
1733737248926	0.06561279	
1733737248927	0.08590698	
1733737248928	0.062026978	
1733737248929	0.06416321	
1733737248930	0.08010864	
1733737248931	0.080947876	
1733737248932	0.08514404	
1733737248933	0.081329346	
1733737248934	0.061264038	
1733737248935	0.04005432	
1733737248936	0.035476685	
1733737248937	0.02243042	
1733737248938	0.017166138	
1733737248939	0.023727417	
1733737248940	0.03616333	
1733737248941	0.03692627	
1733737248942	0.009918213	
1733737248943	-0.017700195	
1733737248944	-0.014801025	
1733737248945	-0.0025177002	
1733737248946	-0.0020599365	
1733737248947	-0.008850098	
1733737248948	-0.007019043	
1733737248949	0.004348755	
1733737248950	0.008010864	
1733737248951	0.005722046	
1733737248952	6.1035156E-4	
1733737248953	-0.006790161	
1733737248954	-0.017852783	
1733737248955	-0.01838684	
1733737248956	-0.008392334	
1733737248957	-0.014877319	
1733737248958	-0.01411438	
1733737248959	-0.015716553	
1733737248960	-0.030517578	
1733737248961	-0.03189087	
1733737248962	-0.0289917	
1733737248963	-0.024871826	
1733737248964	-0.02609253	
1733737248965	-0.0315094	
1733737248966	-0.027999878	
1733737248967	-0.022354126	
1733737248968	-0.021514893	
1733737248969	-0.02243042	
1733737248970	-0.02670288	
1733737248971	-0.04219055	
1733737248972	-0.04486084	
1733737248973	-0.026016235	
1733737248974	-0.018615723	
1733737248975	-0.01739502	
1733737248976	-0.006790161	
1733737248977	0.0031280518	
1733737248978	0.013809204	
1733737248979	0.021896362	
1733737248980	0.008239746	
1733737248981	-0.009231567	
1733737248982	0.0049591064	
1733737248983	0.016326904	
1733737248984	0.016937256	
1733737248985	0.028762817	
1733737248986	0.02998352	
1733737248987	0.024414062	
1733737248988	0.014419556	
1733737248989	0.015563965	
1733737248990	0.029525757	
1733737248991	0.029678345	
1733737248992	0.02456665	
1733737248993	0.017547607	
1733737248994	0.0038146973	
1733737248995	-0.01625061	
1733737248996	-0.017089844	
1733737248997	-0.0025939941	
1733737248998	-0.005340576	
1733737248999	-0.0118255615	
1733737249000	-0.008621216	
1733737249001	-0.0038146973	
1733737249002	-0.0060272217	
1733737249003	-0.0051116943	
1733737249004	-6.1035156E-4	
1733737249005	1.5258789E-4	
1733737249006	0.0010681152	
1733737249007	9.1552734E-4	
1733737249008	0.0012207031	
1733737249009	0.008468628	
1733737249010	-0.00541687	
1733737249011	-0.015640259	
1733737249012	0.004425049	
1733737249013	0.0075531006	
1733737249014	0.015182495	
1733737249015	0.046920776	
1733737249016	0.054092407	
1733737249017	0.038604736	
1733737249018	0.043029785	
1733737249019	0.029373169	
1733737249020	-0.013656616	
1733737249021	-0.015563965	
1733737249022	-0.013885498	
1733737249023	-0.041503906	
1733737249024	-0.041046143	
1733737249025	-0.022506714	
1733737249026	-0.009231567	
1733737249027	-0.0011444092	
1733737249028	0.00579834	
1733737249029	0.017852783	
1733737249030	0.011520386	
1733737249031	0.0024414062	
1733737249032	0.0011444092	
1733737249033	-0.017471313	
1733737249034	-0.026168823	
1733737249035	-0.020599365	
1733737249036	-0.03265381	
1733737249037	-0.027160645	
1733737249038	-0.0077819824	
1733737249039	-0.015640259	
1733737249040	-0.026245117	
1733737249041	-0.029296875	
1733737249042	-0.025558472	
1733737249043	-0.010986328	
1733737249044	0.0010681152	
1733737249045	0.020217896	
1733737249046	0.034484863	
1733737249047	0.018997192	
1733737249048	-0.0066375732	
1733737249049	-0.026016235	
1733737249050	-0.022125244	
1733737249051	0.0047302246	
1733737249052	0.024490356	
1733737249053	0.030593872	
1733737249054	0.021591187	
1733737249055	0.01159668	
1733737249056	0.004348755	
1733737249057	-0.007858276	
1733737249058	0.012435913	
1733737249059	0.024414062	
1733737249060	0.005722046	
1733737249061	-0.0062561035	
1733737249062	-0.009002686	
1733737249063	-3.8146973E-4	
1733737249064	-0.010910034	
1733737249065	-0.009765625	
1733737249066	0.030593872	
1733737249067	0.033111572	
1733737249068	0.010681152	
1733737249069	0.021133423	
1733737249070	0.012969971	
1733737249071	-0.018310547	
1733737249072	-0.025558472	
1733737249073	-0.022125244	
1733737249074	-0.009613037	
1733737249075	0.014266968	
1733737249076	0.022964478	
1733737249077	0.018081665	
1733737249078	0.018844604	
1733737249079	0.0059509277	
1733737249080	-0.01838684	
1733737249081	-0.013961792	
1733737249082	-0.0015258789	
1733737249083	0.004425049	
1733737249084	0.0051879883	
1733737249085	-0.03303528	
1733737249086	-0.051651	
1733737249087	-0.022201538	
1733737249088	0.0033569336	
1733737249089	0.019378662	
1733737249090	0.02204895	
1733737249091	0.021514893	
1733737249092	0.009231567	
1733737249093	0.006713867	
1733737249094	0.018539429	
1733737249095	-0.004272461	
1733737249096	-0.0059509277	
1733737249097	0.038146973	
1733737249098	0.04234314	
1733737249099	0.010375977	
1733737249100	0.017547607	
1733737249101	-0.0031280518	
1733737249102	-0.07354736	
1733737249103	-0.07598877	
1733737249104	-0.029754639	
1733737249105	-0.019378662	
1733737249106	-0.009613037	
1733737249107	-0.009613037	
1733737249108	-0.03768921	
1733737249109	-0.02822876	
1733737249110	0.011520386	
1733737249111	0.0491333	
1733737249112	0.07736206	
1733737249113	0.0743103	
1733737249114	0.029296875	
1733737249115	-0.029067993	
1733737249116	-0.04600525	
1733737249117	-0.044631958	
1733737249118	-0.018310547	
1733737249119	0.010757446	
1733737249120	-0.006713867	
1733737249121	-0.0104522705	
1733737249122	-0.0146484375	
1733737249123	-0.027618408	
1733737249124	-0.016708374	
1733737249125	-0.032730103	
1733737249126	-0.057296753	
1733737249127	-0.015487671	
1733737249128	0.03791809	
1733737249129	0.041427612	
1733737249130	0.03265381	
1733737249131	0.021362305	
1733737249132	0.03692627	
1733737249133	0.055923462	
1733737249134	0.0415802	
1733737249135	0.017623901	
1733737249136	-9.918213E-4	
1733737249137	0.008087158	
1733737249138	0.05355835	
1733737249139	0.103302	
1733737249140	0.04043579	
1733737249141	-0.044631958	
1733737249142	-0.034332275	
1733737249143	-0.062332153	
1733737249144	-0.10673523	
1733737249145	-0.112457275	
1733737249146	-0.06965637	
1733737249147	-0.010528564	
1733737249148	-0.002670288	
1733737249149	0.024032593	
1733737249150	0.012130737	
1733737249151	-0.025024414	
1733737249152	0.004425049	
1733737249153	0.039978027	
1733737249154	0.07904053	
1733737249155	0.041503906	
1733737249156	-0.04524231	
1733737249157	-0.043563843	
1733737249158	0.02319336	
1733737249159	0.08369446	
1733737249160	0.09719849	
1733737249161	0.06248474	
1733737249162	-0.012588501	
1733737249163	-0.024108887	
1733737249164	-0.010757446	
1733737249165	-0.01991272	
1733737249166	0.02456665	
1733737249167	0.014190674	
1733737249168	0.0064086914	
1733737249169	0.056915283	
1733737249170	0.06416321	
1733737249171	-0.02319336	
1733737249172	-0.17158508	
1733737249173	-0.14755249	
1733737249174	-0.036087036	
1733737249175	0.037231445	
1733737249176	0.09643555	
1733737249177	-0.04798889	
1733737249178	-0.24078369	
1733737249179	-0.25909424	
1733737249180	-0.12321472	
1733737249181	0.16983032	
1733737249182	0.3541565	
1733737249183	0.22651672	
1733737249184	0.0050354004	
1733737249185	-0.1285553	
1733737249186	-0.2518463	
1733737249187	-0.27786255	
1733737249188	-0.047607422	
1733737249189	0.17936707	
1733737249190	0.19294739	
1733737249191	0.11329651	
1733737249192	0.07537842	
1733737249193	0.057144165	
1733737249194	0.005874634	
1733737249195	-0.0957489	
1733737249196	-0.1612854	
1733737249197	0.037460327	
1733737249198	0.20111084	
1733737249199	0.08857727	
1733737249200	0.12283325	
1733737249201	0.0907135	
1733737249202	-0.0491333	
1733737249203	0.07461548	
1733737249204	0.17539978	
1733737249205	0.15937805	
1733737249206	0.11955261	
1733737249207	0.02281189	
1733737249208	-0.13450623	
1733737249209	-0.21156311	
1733737249210	-0.17745972	
1733737249211	-0.28808594	
1733737249212	-0.34439087	
1733737249213	-0.2103424	
1733737249214	-0.08140564	
1733737249215	0.036239624	
1733737249216	0.057373047	
1733737249217	0.016098022	
1733737249218	-0.05508423	
1733737249219	-0.09170532	
1733737249220	0.03868103	
1733737249221	0.1561737	
1733737249222	0.23010254	
1733737249223	0.2722931	
1733737249224	0.20080566	
1733737249225	0.16906738	
1733737249226	0.11299133	
1733737249227	-0.0844574	
1733737249228	-0.14930725	
1733737249229	-0.10307312	
1733737249230	-0.11383057	
1733737249231	-0.02609253	
1733737249232	0.06881714	
1733737249233	0.08850098	
1733737249234	0.10795593	
1733737249235	0.07385254	
1733737249236	0.02357483	
1733737249237	0.04348755	
1733737249238	0.07926941	
1733737249239	-0.0032806396	
1733737249240	-0.06309509	
1733737249241	-0.15609741	
1733737249242	-0.42945862	
1733737249243	-0.4360199	
1733737249244	-0.26168823	
1733737249245	-0.19050598	
1733737249246	-0.03753662	
1733737249247	0.014801025	
1733737249248	0.02204895	
1733737249249	0.058898926	
1733737249250	-0.042037964	
1733737249251	0.011062622	
1733737249252	0.210495	
1733737249253	0.28381348	
1733737249254	0.24871826	
1733737249255	0.19447327	
1733737249256	0.18127441	
1733737249257	0.22521973	
1733737249258	0.22041321	
1733737249259	0.14480591	
1733737249260	0.08270264	
1733737249261	0.012969971	
1733737249262	0.010604858	
1733737249263	0.033416748	
1733737249264	0.01373291	
1733737249265	-0.036621094	
1733737249266	-0.13816833	
1733737249267	-0.11314392	
1733737249268	-5.340576E-4	
1733737249269	0.0048828125	
1733737249270	0.027236938	
1733737249271	0.06111145	
1733737249272	-0.037765503	
1733737249273	-0.16647339	
1733737249274	-0.3377533	
1733737249275	-0.47302246	
1733737249276	-0.34614563	
1733737249277	-0.21308899	
1733737249278	-0.20111084	
1733737249279	-0.080947876	
1733737249280	0.014190674	
1733737249281	0.015182495	
1733737249282	0.06271362	
1733737249283	0.10597229	
1733737249284	0.08972168	
1733737249285	0.059432983	
1733737249286	0.05722046	
1733737249287	0.06439209	
1733737249288	0.1613617	
1733737249289	0.29167175	
1733737249290	0.27542114	
1733737249291	0.17318726	
1733737249292	0.1133728	
1733737249293	0.07614136	
1733737249294	0.013046265	
1733737249295	0.008163452	
1733737249296	0.046539307	
1733737249297	0.0592041	
1733737249298	0.048065186	
1733737249299	0.0019836426	
1733737249300	-0.04005432	
1733737249301	-0.044937134	
1733737249302	-0.043563843	
1733737249303	-0.044555664	
1733737249304	-0.030136108	
1733737249305	0.0011444092	
1733737249306	0.037384033	
1733737249307	0.02243042	
1733737249308	-0.025634766	
1733737249309	-0.043411255	
1733737249310	-0.082092285	
1733737249311	-0.119018555	
1733737249312	-0.08491516	
1733737249313	-0.043182373	
1733737249314	-0.035629272	
1733737249315	-0.061416626	
1733737249316	-0.040740967	
1733737249317	-0.030059814	
1733737249318	-0.04852295	
1733737249319	-0.019454956	
1733737249320	-0.018157959	
1733737249321	-0.030899048	
1733737249322	-0.005493164	
1733737249323	0.012130737	
1733737249324	0.013504028	
1733737249325	0.00831604	
1733737249326	7.6293945E-5	
1733737249327	0.00289917	
1733737249328	0.0046539307	
1733737249329	0.001373291	
1733737249330	0.008544922	
1733737249331	0.008621216	
1733737249332	8.392334E-4	
1733737249333	0.0059509277	
1733737249334	0.0063323975	
1733737249335	0.009536743	
1733737249336	0.020599365	
1733737249337	0.023727417	
1733737249338	0.02204895	
1733737249339	0.015182495	
1733737249340	0.020065308	
1733737249341	0.025863647	
1733737249342	0.018615723	
1733737249343	0.009841919	
1733737249344	-0.0017547607	
1733737249345	-0.0063323975	
1733737249346	-0.0061798096	
1733737249347	-0.015792847	
1733737249348	-0.010070801	
1733737249349	-0.011444092	
1733737249350	-0.02532959	
1733737249351	-0.009231567	
1733737249352	0.003967285	
1733737249353	0.0065612793	
1733737249354	0.021743774	
1733737249355	0.031051636	
1733737249356	0.030288696	
1733737249357	0.03616333	
1733737249358	0.04119873	
1733737249359	0.03868103	
1733737249360	0.038909912	
1733737249361	0.036315918	
1733737249362	0.02861023	
1733737249363	0.024795532	
1733737249364	0.02281189	
1733737249365	0.02243042	
1733737249366	0.011138916	
1733737249367	0.001449585	
1733737249368	-0.0025177002	
1733737249369	-0.009536743	
1733737249370	-0.007171631	
1733737249371	-0.011444092	
1733737249372	-0.012283325	
1733737249373	-0.010528564	
1733737249374	-0.022735596	
1733737249375	-0.027160645	
1733737249376	-0.03555298	
1733737249377	-0.051879883	
1733737249378	-0.057907104	
1733737249379	-0.06515503	
1733737249380	-0.06538391	
1733737249381	-0.067596436	
1733737249382	-0.06904602	
1733737249383	-0.052261353	
1733737249384	-0.04219055	
1733737249385	-0.039749146	
1733737249386	-0.02708435	
1733737249387	-0.008392334	
1733737249388	0.010070801	
1733737249389	0.027694702	
1733737249390	0.04676819	
1733737249391	0.05218506	
1733737249392	0.05393982	
1733737249393	0.05180359	
1733737249394	0.044021606	
1733737249395	0.043029785	
1733737249396	0.04020691	
1733737249397	0.037078857	
1733737249398	0.032348633	
1733737249399	0.024719238	
1733737249400	0.019607544	
1733737249401	0.013122559	
1733737249402	0.010604858	
1733737249403	0.002746582	
1733737249404	-0.001449585	
1733737249405	0.003967285	
1733737249406	-0.0032806396	
1733737249407	-0.012741089	
1733737249408	-0.018615723	
1733737249409	-0.024795532	
1733737249410	-0.026245117	
1733737249411	-0.024719238	
1733737249412	-0.011672974	
1733737249413	-0.002822876	
1733737249414	0.0031280518	
1733737249415	0.0077819824	
1733737249416	0.0045776367	
1733737249417	0.0032043457	
1733737249418	0.0018310547	
1733737249419	-3.8146973E-4	
1733737249420	-0.0051879883	
1733737249421	-0.011138916	
1733737249422	-0.016021729	
1733737249423	-0.01586914	
1733737249424	-0.0104522705	
1733737249425	-0.0077056885	
1733737249426	0.0025939941	
1733737249427	0.012969971	
1733737249428	0.008468628	
1733737249429	0.0051116943	
1733737249430	0.0077819824	
1733737249431	0.0035095215	
1733737249432	0.0015258789	
1733737249433	0.0047302246	
1733737249434	0.005493164	
1733737249435	0.005493164	
1733737249436	0.0030517578	
1733737249437	0.0025939941	
1733737249438	0.0073242188	
1733737249439	0.008468628	
1733737249440	2.2888184E-4	
1733737249441	-0.005264282	
1733737249442	-0.008239746	
1733737249443	-0.012588501	
1733737249444	-0.010986328	
1733737249445	-0.010223389	
1733737249446	-0.0064086914	
1733737249447	-0.0062561035	
1733737249448	-0.012969971	
1733737249449	-0.014877319	
1733737249450	-0.017166138	
1733737249451	-0.01701355	
1733737249452	-0.01701355	
1733737249453	-0.014801025	
1733737249454	-0.00831604	
1733737249455	-0.012283325	
1733737249456	-0.010757446	
1733737249457	-0.008773804	
1733737249458	-0.01411438	
1733737249459	-0.013122559	
1733737249460	-0.017852783	
1733737249461	-0.02319336	
1733737249462	-0.021591187	
1733737249463	-0.014877319	
1733737249464	-0.006790161	
1733737249465	-0.005493164	
1733737249466	-0.00869751	
1733737249467	-0.011291504	
1733737249468	-0.0016784668	
1733737249469	0.006713867	
1733737249470	0.01777649	
1733737249471	0.031204224	
1733737249472	0.03868103	
1733737249473	0.044784546	
1733737249474	0.08125305	
1733737249475	0.115356445	
1733737249476	0.14030457	
1733737249477	0.14297485	
1733737249478	0.12031555	
1733737249479	0.112838745	
1733737249480	0.084991455	
1733737249481	0.06484985	
1733737249482	0.03677368	
1733737249483	0.026397705	
1733737249484	-0.023117065	
1733737249485	-0.04585266	
1733737249486	-0.05783081	
1733737249487	-0.08834839	
1733737249488	-0.08087158	
1733737249489	-0.11062622	
1733737249490	-0.109558105	
1733737249491	-0.11230469	
1733737249492	-0.11703491	
1733737249493	-0.10246277	
1733737249494	-0.10986328	
1733737249495	-0.094070435	
1733737249496	-0.09262085	
1733737249497	-0.087127686	
1733737249498	-0.06210327	
1733737249499	-0.041732788	
1733737249500	-0.039138794	
1733737249501	-0.01739502	
1733737249502	-0.0038146973	
1733737249503	0.0051116943	
1733737249504	0.015945435	
1733737249505	0.020446777	
1733737249506	0.041656494	
1733737249507	0.06324768	
1733737249508	0.065078735	
1733737249509	0.08506775	
1733737249510	0.088272095	
1733737249511	0.08216858	
1733737249512	0.082855225	
1733737249513	0.063934326	
1733737249514	0.06568909	
1733737249515	0.055007935	
1733737249516	0.041275024	
1733737249517	0.049819946	
1733737249518	0.041427612	
1733737249519	0.032730103	
1733737249520	0.04043579	
1733737249521	0.033950806	
1733737249522	0.027313232	
1733737249523	0.021743774	
1733737249524	0.0059509277	
1733737249525	0.0012207031	
1733737249526	-0.013809204	
1733737249527	-0.03616333	
1733737249528	-0.04966736	
1733737249529	-0.060424805	
1733737249530	-0.07797241	
1733737249531	-0.09033203	
1733737249532	-0.090026855	
1733737249533	-0.09338379	
1733737249534	-0.08720398	
1733737249535	-0.078430176	
1733737249536	-0.070114136	
1733737249537	-0.04989624	
1733737249538	-0.045013428	
1733737249539	-0.04096985	
1733737249540	-0.015411377	
1733737249541	-0.0019836426	
1733737249542	0.004501343	
1733737249543	0.019378662	
1733737249544	0.023880005	
1733737249545	0.028381348	
1733737249546	0.04447937	
1733737249547	0.049362183	
1733737249548	0.053634644	
1733737249549	0.064468384	
1733737249550	0.06523132	
1733737249551	0.069885254	
1733737249552	0.062026978	
1733737249553	0.049362183	
1733737249554	0.04508972	
1733737249555	0.035476685	
1733737249556	0.03578186	
1733737249557	0.033416748	
1733737249558	0.02670288	
1733737249559	0.021438599	
1733737249560	0.013504028	
1733737249561	0.010147095	
1733737249562	0.0025939941	
1733737249563	-0.010757446	
1733737249564	-0.018081665	
1733737249565	-0.019378662	
1733737249566	-0.022888184	
1733737249567	-0.023956299	
1733737249568	-0.026245117	
1733737249569	-0.02456665	
1733737249570	-0.02243042	
1733737249571	-0.02319336	
1733737249572	-0.012588501	
1733737249573	-0.0029754639	
1733737249574	-0.0119018555	
1733737249575	-0.012664795	
1733737249576	-0.021820068	
1733737249577	-0.026550293	
1733737249578	-0.0046539307	
1733737249579	0.008087158	
1733737249580	0.011291504	
1733737249581	0.019760132	
1733737249582	0.01159668	
1733737249583	-0.002746582	
1733737249584	-0.01838684	
1733737249585	-0.02067566	
1733737249586	4.5776367E-4	
1733737249587	-0.0029754639	
1733737249588	-0.015640259	
1733737249589	-0.021209717	
1733737249590	-0.03440857	
1733737249591	-0.028152466	
1733737249592	-0.026779175	
1733737249593	-0.03616333	
1733737249594	-0.036087036	
1733737249595	-0.041503906	
1733737249596	-0.040359497	
1733737249597	-0.02670288	
1733737249598	-0.0061035156	
1733737249599	0.005722046	
1733737249600	0.0031280518	
1733737249601	-0.007858276	
1733737249602	-2.2888184E-4	
1733737249603	0.0050354004	
1733737249604	0.006866455	
1733737249605	0.01663208	
1733737249606	0.0051879883	
1733737249607	-0.0017547607	
1733737249608	-0.004348755	
1733737249609	-0.013961792	
1733737249610	-0.010528564	
1733737249611	-0.006866455	
1733737249612	-0.0016021729	
1733737249613	0.016555786	
1733737249614	0.033493042	
1733737249615	0.051345825	
1733737249616	0.060653687	
1733737249617	0.061798096	
1733737249618	0.076293945	
1733737249619	0.086135864	
1733737249620	0.09422302	
1733737249621	0.092315674	
1733737249622	0.09399414	
1733737249623	0.095214844	
1733737249624	0.07484436	
1733737249625	0.060424805	
1733737249626	0.035324097	
1733737249627	0.0062561035	
1733737249628	-0.01083374	
1733737249629	-0.032348633	
1733737249630	-0.04119873	
1733737249631	-0.05104065	
1733737249632	-0.069885254	
1733737249633	-0.08766174	
1733737249634	-0.10444641	
1733737249635	-0.09475708	
1733737249636	-0.065841675	
1733737249637	-0.05630493	
1733737249638	-0.055007935	
1733737249639	-0.04989624	
1733737249640	-0.028076172	
1733737249641	-0.015411377	
1733737249642	-0.019378662	
1733737249643	-0.0063323975	
1733737249644	-0.0064086914	
1733737249645	-0.0104522705	
1733737249646	-0.0024414062	
1733737249647	0.0025177002	
1733737249648	-0.0051116943	
1733737249649	-0.021133423	
1733737249650	-0.0073242188	
1733737249651	-0.030517578	
1733737249652	-0.06652832	
1733737249653	-0.061035156	
1733737249654	-0.07476807	
1733737249655	-0.0730896	
1733737249656	-0.04928589	
1733737249657	-0.052108765	
1733737249658	-0.021591187	
1733737249659	0.004425049	
1733737249660	0.027770996	
1733737249661	0.037078857	
1733737249662	0.0017547607	
1733737249663	-4.5776367E-4	
1733737249664	0.04447937	
1733737249665	0.104522705	
1733737249666	0.11772156	
1733737249667	0.10658264	
1733737249668	0.12619019	
1733737249669	0.110321045	
1733737249670	0.084991455	
1733737249671	0.09391785	
1733737249672	0.07888794	
1733737249673	0.059509277	
1733737249674	0.04699707	
1733737249675	0.024871826	
1733737249676	0.011749268	
1733737249677	0.0048065186	
1733737249678	-0.0015258789	
1733737249679	-0.012664795	
1733737249680	-0.030593872	
1733737249681	-0.035476685	
1733737249682	-0.027923584	
1733737249683	-0.031433105	
1733737249684	-0.028686523	
1733737249685	-0.030441284	
1733737249686	-0.0440979	
1733737249687	-0.045700073	
1733737249688	-0.05508423	
1733737249689	-0.05683899	
1733737249690	-0.043182373	
1733737249691	-0.026550293	
1733737249692	6.866455E-4	
1733737249693	0.007171631	
1733737249694	-0.0065612793	
1733737249695	-0.0051879883	
1733737249696	0.0033569336	
1733737249697	-7.6293945E-4	
1733737249698	-0.016708374	
1733737249699	-0.022125244	
1733737249700	-0.0090789795	
1733737249701	0.009231567	
1733737249702	0.02128601	
1733737249703	0.019302368	
1733737249704	0.0132751465	
1733737249705	0.0064849854	
1733737249706	0.0061035156	
1733737249707	0.0090789795	
1733737249708	0.002822876	
1733737249709	0.0077056885	
1733737249710	0.00289917	
1733737249711	-0.00541687	
1733737249712	-0.005493164	
1733737249713	-0.012893677	
1733737249714	-0.010528564	
1733737249715	-0.014724731	
1733737249716	-0.016555786	
1733737249717	-0.022964478	
1733737249718	-0.027389526	
1733737249719	-0.028457642	
1733737249720	-0.047225952	
1733737249721	-0.062408447	
1733737249722	-0.07392883	
1733737249723	-0.08102417	
1733737249724	-0.056762695	
1733737249725	-0.04119873	
1733737249726	-0.029830933	
1733737249727	-0.023422241	
1733737249728	-0.008773804	
1733737249729	-4.5776367E-4	
1733737249730	0.012435913	
1733737249731	0.022964478	
1733737249732	0.025939941	
1733737249733	0.043945312	
1733737249734	0.050582886	
1733737249735	0.068740845	
1733737249736	0.08354187	
1733737249737	0.079422	
1733737249738	0.0743103	
1733737249739	0.06774902	
1733737249740	0.06706238	
1733737249741	0.06607056	
1733737249742	0.058441162	
1733737249743	0.047683716	
1733737249744	0.043792725	
1733737249745	0.05340576	
1733737249746	0.04562378	
1733737249747	0.023040771	
1733737249748	0.009689331	
1733737249749	0.004196167	
1733737249750	0.008468628	
1733737249751	0.013656616	
1733737249752	0.012359619	
1733737249753	-0.0012207031	
1733737249754	-0.019760132	
1733737249755	0.0	
