# OpenSignals Text File Format
# {"00:80:E1:26:A1:B0":{"sensor":["EMG"],"device name":"00:80:E1:26:A1:B0","column":["timestamp","EMG"],"sync interval":2,"time":"10:30:09","comments":"","keywords":"","device connection":"BLE00:80:E1:26:A1:B0","channels":[0],"date":"2025-02-28","mode":0,"digital IO":[],"firmware version":259,"device":"musclebanplux","position":0,"sampling rate":1000,"label":["EMG"],"resolution":[16],"special":[{}],"sleeve color":["UNKNOWN"]}}
# EndOfHeader
1740735009926	0.0017547607	
1740735009927	0.009994507	
1740735009928	0.0060272217	
1740735009929	-0.0025939941	
1740735009930	-0.010681152	
1740735009931	-0.01739502	
1740735009932	-0.0012207031	
1740735009933	-0.0104522705	
1740735009934	-0.01953125	
1740735009935	-0.0118255615	
1740735009936	0.015792847	
1740735009937	0.03074646	
1740735009938	0.018463135	
1740735009939	0.009231567	
1740735009940	-0.0035858154	
1740735009941	-0.0049591064	
1740735009942	-0.018692017	
1740735009943	-0.019454956	
1740735009944	0.004119873	
1740735009945	0.0010681152	
1740735009946	0.0025177002	
1740735009947	0.005264282	
1740735009948	0.0	
1740735009949	0.00793457	
1740735009950	0.012741089	
1740735009951	0.009384155	
1740735009952	0.010223389	
1740735009953	-0.0022125244	
1740735009954	-0.015792847	
1740735009955	-0.0146484375	
1740735009956	-0.003967285	
1740735009957	-0.004043579	
1740735009958	-0.004043579	
1740735009959	-0.012893677	
1740735009960	-0.016174316	
1740735009961	0.00289917	
1740735009962	0.004119873	
1740735009963	0.0035858154	
1740735009964	0.0051116943	
1740735009965	0.0035858154	
1740735009966	0.007247925	
1740735009967	0.005264282	
1740735009968	0.004043579	
1740735009969	0.0060272217	
1740735009970	-0.003967285	
1740735009971	-0.027770996	
1740735009972	-0.021209717	
1740735009973	-0.008621216	
1740735009974	-0.009841919	
1740735009975	0.017929077	
1740735009976	0.024719238	
1740735009977	0.009307861	
1740735009978	0.021362305	
1740735009979	0.01335144	
1740735009980	-0.006866455	
1740735009981	-0.005493164	
1740735009982	0.0024414062	
1740735009983	0.020141602	
1740735009984	0.02166748	
1740735009985	0.005340576	
1740735009986	-0.021133423	
1740735009987	-0.036621094	
1740735009988	-0.01411438	
1740735009989	0.005493164	
1740735009990	-0.008773804	
1740735009991	-0.007858276	
1740735009992	0.0048828125	
1740735009993	0.008468628	
1740735009994	0.008621216	
1740735009995	-2.2888184E-4	
1740735009996	-0.028457642	
1740735009997	-0.03387451	
1740735009998	0.0030517578	
1740735009999	0.015487671	
1740735010000	0.010147095	
1740735010001	-0.0018310547	
1740735010002	-0.009460449	
1740735010003	0.012969971	
1740735010004	0.011520386	
1740735010005	0.0066375732	
1740735010006	0.01083374	
1740735010007	0.0032806396	
1740735010008	-0.0064086914	
1740735010009	-0.004348755	
1740735010010	9.918213E-4	
1740735010011	0.01586914	
1740735010012	0.017166138	
1740735010013	-0.004501343	
1740735010014	-0.02418518	
1740735010015	-0.033187866	
1740735010016	-0.00793457	
1740735010017	0.012817383	
1740735010018	-0.004425049	
1740735010019	-0.009536743	
1740735010020	-5.340576E-4	
1740735010021	-0.0017547607	
1740735010022	0.0019073486	
1740735010023	0.0077056885	
1740735010024	0.012893677	
1740735010025	0.012893677	
1740735010026	0.0022125244	
1740735010027	-0.004348755	
1740735010028	-0.004272461	
1740735010029	-0.001449585	
1740735010030	0.002670288	
1740735010031	-7.6293945E-5	
1740735010032	0.0047302246	
1740735010033	0.0060272217	
1740735010034	-0.00831604	
1740735010035	-0.0059509277	
1740735010036	0.01411438	
1740735010037	0.01777649	
1740735010038	0.0029754639	
1740735010039	-0.0035095215	
1740735010040	-0.021896362	
1740735010041	-0.03540039	
1740735010042	-0.004501343	
1740735010043	0.008850098	
1740735010044	-0.0074005127	
1740735010045	-0.004196167	
1740735010046	0.010070801	
1740735010047	0.0065612793	
1740735010048	-0.0018310547	
1740735010049	0.0059509277	
1740735010050	0.009613037	
1740735010051	0.010910034	
1740735010052	0.023803711	
1740735010053	0.017242432	
1740735010054	-0.0062561035	
1740735010055	-0.028457642	
1740735010056	-0.035476685	
1740735010057	-0.020217896	
1740735010058	-0.00579834	
1740735010059	-0.012664795	
1740735010060	-0.001373291	
1740735010061	0.014724731	
1740735010062	0.014724731	
1740735010063	0.013885498	
1740735010064	0.011138916	
1740735010065	0.009536743	
1740735010066	0.0020599365	
1740735010067	-0.0045776367	
1740735010068	0.0090789795	
1740735010069	0.014266968	
1740735010070	-0.0077056885	
1740735010071	-0.01777649	
1740735010072	-0.016021729	
1740735010073	-0.01739502	
1740735010074	-0.01411438	
1740735010075	-0.0029754639	
1740735010076	0.0022125244	
1740735010077	-0.015487671	
1740735010078	0.0023651123	
1740735010079	0.029449463	
1740735010080	0.01838684	
1740735010081	0.001373291	
1740735010082	-0.001373291	
1740735010083	0.013961792	
1740735010084	0.009536743	
1740735010085	-0.008239746	
1740735010086	-0.009765625	
1740735010087	-0.0049591064	
1740735010088	0.005340576	
1740735010089	0.010604858	
1740735010090	-0.0025177002	
1740735010091	-0.012893677	
1740735010092	-0.0029754639	
1740735010093	0.017852783	
1740735010094	0.030136108	
1740735010095	0.015182495	
1740735010096	7.6293945E-4	
1740735010097	-0.028457642	
1740735010098	-0.054473877	
1740735010099	-0.022659302	
1740735010100	0.0073242188	
1740735010101	-0.0045776367	
1740735010102	-0.00541687	
1740735010103	-6.866455E-4	
1740735010104	-7.6293945E-5	
1740735010105	0.0019073486	
1740735010106	-0.0012969971	
1740735010107	0.0029754639	
1740735010108	0.013198853	
1740735010109	0.030822754	
1740735010110	0.022354126	
1740735010111	-0.007019043	
1740735010112	-0.029373169	
1740735010113	-0.015716553	
1740735010114	0.0021362305	
1740735010115	0.0045776367	
1740735010116	0.017318726	
1740735010117	0.0077056885	
1740735010118	-0.00869751	
1740735010119	-0.008239746	
1740735010120	-0.010070801	
1740735010121	9.918213E-4	
1740735010122	0.008926392	
1740735010123	0.019378662	
1740735010124	0.022583008	
1740735010125	-0.011138916	
1740735010126	-0.034484863	
1740735010127	-0.02609253	
1740735010128	-0.009155273	
1740735010129	0.001449585	
1740735010130	-2.2888184E-4	
1740735010131	0.007019043	
1740735010132	0.012512207	
1740735010133	0.001449585	
1740735010134	0.0024414062	
1740735010135	0.01159668	
1740735010136	0.007095337	
1740735010137	0.005874634	
1740735010138	0.0032043457	
1740735010139	-0.0063323975	
1740735010140	-0.0024414062	
1740735010141	3.8146973E-4	
1740735010142	-7.6293945E-5	
1740735010143	-7.6293945E-4	
1740735010144	0.0036621094	
1740735010145	0.013427734	
1740735010146	0.010910034	
1740735010147	-0.005722046	
1740735010148	-0.026397705	
1740735010149	-0.024414062	
1740735010150	-0.0021362305	
1740735010151	-0.0037384033	
1740735010152	-0.0024414062	
1740735010153	-3.0517578E-4	
1740735010154	0.0010681152	
1740735010155	0.0065612793	
1740735010156	0.0029754639	
1740735010157	0.0017547607	
1740735010158	-0.001373291	
1740735010159	0.004501343	
1740735010160	0.0061798096	
1740735010161	-0.0037384033	
1740735010162	-0.0021362305	
1740735010163	0.008163452	
1740735010164	0.009841919	
1740735010165	0.0021362305	
1740735010166	0.0023651123	
1740735010167	-0.0025177002	
1740735010168	-0.0119018555	
1740735010169	-0.0032043457	
1740735010170	-0.0038909912	
1740735010171	-0.00831604	
1740735010172	-0.002670288	
1740735010173	0.0034332275	
1740735010174	0.007095337	
1740735010175	-0.00579834	
1740735010176	-0.013580322	
1740735010177	-0.0037384033	
1740735010178	-0.0032043457	
1740735010179	-0.0012207031	
1740735010180	-5.340576E-4	
1740735010181	0.009689331	
1740735010182	0.011367798	
1740735010183	8.392334E-4	
1740735010184	-0.0051879883	
1740735010185	-0.0077819824	
1740735010186	9.918213E-4	
1740735010187	0.005722046	
1740735010188	0.0064849854	
1740735010189	0.006790161	
1740735010190	0.003967285	
1740735010191	-9.1552734E-4	
1740735010192	0.0036621094	
1740735010193	0.0050354004	
1740735010194	0.0033569336	
1740735010195	-9.1552734E-4	
1740735010196	-0.0051116943	
1740735010197	-0.0012207031	
1740735010198	-0.008773804	
1740735010199	-0.005264282	
1740735010200	-0.0048065186	
1740735010201	-0.0051879883	
1740735010202	-0.004348755	
1740735010203	-0.0015258789	
1740735010204	-6.1035156E-4	
1740735010205	-0.0016021729	
1740735010206	0.001373291	
1740735010207	0.0051879883	
1740735010208	0.01373291	
1740735010209	0.011444092	
1740735010210	2.2888184E-4	
1740735010211	-0.012817383	
1740735010212	-0.011672974	
1740735010213	-0.015182495	
1740735010214	-0.022277832	
1740735010215	0.0049591064	
1740735010216	0.01335144	
1740735010217	0.0019836426	
1740735010218	-0.0051879883	
1740735010219	-0.024719238	
1740735010220	-0.021133423	
1740735010221	0.010757446	
1740735010222	0.0315094	
1740735010223	0.030212402	
1740735010224	0.022888184	
1740735010225	0.01663208	
1740735010226	0.0038146973	
1740735010227	-0.002822876	
1740735010228	-0.0059509277	
1740735010229	-2.2888184E-4	
1740735010230	0.0038909912	
1740735010231	-0.004425049	
1740735010232	-0.008850098	
1740735010233	-0.013504028	
1740735010234	-0.020141602	
1740735010235	-0.009689331	
1740735010236	-3.0517578E-4	
1740735010237	-0.0077056885	
1740735010238	-0.0045776367	
1740735010239	0.0104522705	
1740735010240	0.010375977	
1740735010241	0.0066375732	
1740735010242	-0.0016021729	
1740735010243	-0.014877319	
1740735010244	-0.015029907	
1740735010245	-0.007247925	
1740735010246	-0.008163452	
1740735010247	-0.0015258789	
1740735010248	0.0016021729	
1740735010249	-0.0077819824	
1740735010250	-0.0065612793	
1740735010251	3.8146973E-4	
1740735010252	0.016708374	
1740735010253	0.023651123	
1740735010254	0.009307861	
1740735010255	0.010375977	
1740735010256	0.006790161	
1740735010257	0.0012207031	
1740735010258	-0.0018310547	
1740735010259	-0.0074005127	
1740735010260	0.0016021729	
1740735010261	0.0016784668	
1740735010262	-0.0032043457	
1740735010263	-0.0064849854	
1740735010264	-0.0036621094	
1740735010265	-0.0012969971	
1740735010266	-0.0022125244	
1740735010267	0.005493164	
1740735010268	-0.0066375732	
1740735010269	-0.0019836426	
1740735010270	9.1552734E-4	
1740735010271	5.340576E-4	
1740735010272	0.002822876	
1740735010273	-0.0064086914	
1740735010274	0.0022125244	
1740735010275	-0.0015258789	
1740735010276	-0.004348755	
1740735010277	0.0025177002	
1740735010278	-0.0032043457	
1740735010279	-0.0010681152	
1740735010280	0.0020599365	
1740735010281	-0.0059509277	
1740735010282	-0.007171631	
1740735010283	-0.0021362305	
1740735010284	-4.5776367E-4	
1740735010285	-3.0517578E-4	
1740735010286	3.0517578E-4	
1740735010287	0.0038146973	
1740735010288	0.0046539307	
1740735010289	0.017623901	
1740735010290	0.02861023	
1740735010291	0.010528564	
1740735010292	0.005722046	
1740735010293	-0.011367798	
1740735010294	-0.030441284	
1740735010295	-0.0077819824	
1740735010296	0.0045776367	
1740735010297	-0.025939941	
1740735010298	-0.045013428	
1740735010299	-0.027923584	
1740735010300	-0.004425049	
1740735010301	0.024414062	
1740735010302	0.029907227	
1740735010303	0.016860962	
1740735010304	0.011062622	
1740735010305	0.0047302246	
1740735010306	0.0061798096	
1740735010307	0.008468628	
1740735010308	0.008010864	
1740735010309	-0.0047302246	
1740735010310	-0.004043579	
1740735010311	0.001449585	
1740735010312	-0.002822876	
1740735010313	-0.005264282	
1740735010314	-0.008621216	
1740735010315	-0.005645752	
1740735010316	-0.0066375732	
1740735010317	-0.0035858154	
1740735010318	0.0010681152	
1740735010319	0.002822876	
1740735010320	0.008087158	
1740735010321	0.0019836426	
1740735010322	-0.0019073486	
1740735010323	0.004119873	
1740735010324	-0.005493164	
1740735010325	-0.008163452	
1740735010326	0.0064849854	
1740735010327	0.002746582	
1740735010328	-0.0012969971	
1740735010329	0.0015258789	
1740735010330	-3.8146973E-4	
1740735010331	0.0020599365	
1740735010332	-0.0015258789	
1740735010333	-0.013046265	
1740735010334	-0.0023651123	
1740735010335	0.012054443	
1740735010336	0.016021729	
1740735010337	0.014953613	
1740735010338	0.005569458	
1740735010339	-0.0077819824	
1740735010340	-0.021438599	
1740735010341	-0.016479492	
1740735010342	-0.0074005127	
1740735010343	-0.0010681152	
1740735010344	-0.0035858154	
1740735010345	-0.019607544	
1740735010346	-0.023803711	
1740735010347	-0.022659302	
1740735010348	-6.1035156E-4	
1740735010349	0.014343262	
1740735010350	0.009689331	
1740735010351	0.030059814	
1740735010352	0.024108887	
1740735010353	0.026321411	
1740735010354	0.021057129	
1740735010355	-0.020751953	
1740735010356	-0.012588501	
1740735010357	0.011672974	
1740735010358	0.011138916	
1740735010359	-0.0035095215	
1740735010360	-0.030059814	
1740735010361	-0.020828247	
1740735010362	0.008544922	
1740735010363	0.006713867	
1740735010364	-0.0045776367	
1740735010365	6.866455E-4	
1740735010366	0.008010864	
1740735010367	0.020523071	
1740735010368	0.024108887	
1740735010369	0.015029907	
1740735010370	-0.0034332275	
1740735010371	-0.033798218	
1740735010372	-0.042800903	
1740735010373	-0.008087158	
1740735010374	0.0012207031	
1740735010375	-0.0062561035	
1740735010376	-0.00289917	
1740735010377	-0.009460449	
1740735010378	-0.0048065186	
1740735010379	0.0064086914	
1740735010380	0.0033569336	
1740735010381	0.0064849854	
1740735010382	0.012969971	
1740735010383	0.008773804	
1740735010384	0.0065612793	
1740735010385	-3.0517578E-4	
1740735010386	0.0020599365	
1740735010387	-0.0022888184	
1740735010388	-0.013046265	
1740735010389	-0.011367798	
1740735010390	-0.0045776367	
1740735010391	-0.0030517578	
1740735010392	-0.0022888184	
1740735010393	0.0031280518	
1740735010394	-0.005569458	
1740735010395	0.0074768066	
1740735010396	0.028839111	
1740735010397	0.016708374	
1740735010398	0.008773804	
1740735010399	0.002822876	
1740735010400	-0.0024414062	
1740735010401	0.0038909912	
1740735010402	-0.0029754639	
1740735010403	-0.015563965	
1740735010404	-0.01335144	
1740735010405	-0.008163452	
1740735010406	-0.009841919	
1740735010407	-0.0060272217	
1740735010408	-0.0012969971	
1740735010409	-0.00541687	
1740735010410	-0.0025177002	
1740735010411	0.008773804	
1740735010412	0.007858276	
1740735010413	-0.006790161	
1740735010414	-0.004425049	
1740735010415	0.0020599365	
1740735010416	0.012588501	
1740735010417	0.004348755	
1740735010418	-0.012664795	
1740735010419	-0.011978149	
1740735010420	-0.0049591064	
1740735010421	0.009002686	
1740735010422	0.024261475	
1740735010423	0.021972656	
1740735010424	-0.0019836426	
1740735010425	-0.025558472	
1740735010426	-0.035705566	
1740735010427	-0.014343262	
1740735010428	0.009536743	
1740735010429	0.008468628	
1740735010430	0.004501343	
1740735010431	0.017166138	
1740735010432	0.0074768066	
1740735010433	-0.009155273	
1740735010434	-0.013885498	
1740735010435	-0.013809204	
1740735010436	0.0061798096	
1740735010437	0.012664795	
1740735010438	0.009155273	
1740735010439	0.0090789795	
1740735010440	0.008544922	
1740735010441	0.007171631	
1740735010442	0.0036621094	
1740735010443	0.0076293945	
1740735010444	0.008163452	
1740735010445	-0.008926392	
1740735010446	-0.022735596	
1740735010447	-0.016021729	
1740735010448	-0.002822876	
1740735010449	-0.0016021729	
1740735010450	-0.0025939941	
1740735010451	0.005340576	
1740735010452	0.0064849854	
1740735010453	-9.918213E-4	
1740735010454	-0.007095337	
1740735010455	-0.004425049	
1740735010456	0.001373291	
1740735010457	0.015258789	
1740735010458	0.023269653	
1740735010459	0.0074768066	
1740735010460	-0.00793457	
1740735010461	-0.015258789	
1740735010462	-0.015182495	
1740735010463	-0.01663208	
1740735010464	-0.0315094	
1740735010465	-0.039138794	
1740735010466	-0.005645752	
1740735010467	0.026245117	
1740735010468	0.02319336	
1740735010469	0.012741089	
1740735010470	0.010910034	
1740735010471	-2.2888184E-4	
1740735010472	-0.013961792	
1740735010473	0.003967285	
1740735010474	0.019073486	
1740735010475	0.0049591064	
1740735010476	0.0	
1740735010477	0.0064849854	
1740735010478	0.0061035156	
1740735010479	0.010528564	
1740735010480	0.007858276	
1740735010481	-0.01373291	
1740735010482	-0.01838684	
1740735010483	-0.013198853	
1740735010484	-0.003967285	
1740735010485	0.0073242188	
1740735010486	0.0062561035	
1740735010487	0.0132751465	
1740735010488	0.014343262	
1740735010489	0.011291504	
1740735010490	3.8146973E-4	
1740735010491	-0.02029419	
1740735010492	-0.020523071	
1740735010493	-0.009155273	
1740735010494	0.0018310547	
1740735010495	0.0034332275	
1740735010496	0.0029754639	
1740735010497	0.0036621094	
1740735010498	0.0018310547	
1740735010499	-0.0029754639	
1740735010500	-0.018692017	
1740735010501	-0.020065308	
1740735010502	-0.0023651123	
1740735010503	0.0024414062	
1740735010504	0.0034332275	
1740735010505	0.007171631	
1740735010506	0.0048828125	
1740735010507	0.002746582	
1740735010508	-0.004119873	
1740735010509	2.2888184E-4	
1740735010510	0.009155273	
1740735010511	0.0046539307	
1740735010512	0.0035095215	
1740735010513	0.0016021729	
1740735010514	0.008621216	
1740735010515	0.007019043	
1740735010516	-0.0060272217	
1740735010517	0.0019836426	
1740735010518	3.0517578E-4	
1740735010519	-0.007095337	
1740735010520	-0.0037384033	
1740735010521	-0.007171631	
1740735010522	-0.0038909912	
1740735010523	-0.0016784668	
1740735010524	-0.005874634	
1740735010525	-0.0037384033	
1740735010526	-0.017623901	
1740735010527	-0.025100708	
1740735010528	0.0065612793	
1740735010529	0.021362305	
1740735010530	0.010375977	
1740735010531	0.0050354004	
1740735010532	0.008926392	
1740735010533	0.011444092	
1740735010534	0.001373291	
1740735010535	-0.013122559	
1740735010536	-0.02708435	
1740735010537	-0.011367798	
1740735010538	0.010147095	
1740735010539	0.008773804	
1740735010540	0.012893677	
1740735010541	0.015945435	
1740735010542	-0.010147095	
1740735010543	-0.004425049	
1740735010544	0.017471313	
1740735010545	0.007171631	
1740735010546	-0.0017547607	
1740735010547	-0.0048828125	
1740735010548	-0.0076293945	
1740735010549	-0.0022888184	
1740735010550	-0.00541687	
1740735010551	0.0016021729	
1740735010552	0.0048065186	
1740735010553	-0.004119873	
1740735010554	0.008544922	
1740735010555	0.006790161	
1740735010556	-0.0061798096	
1740735010557	-0.014801025	
1740735010558	-0.018920898	
1740735010559	-0.01159668	
1740735010560	-2.2888184E-4	
1740735010561	0.0051879883	
1740735010562	0.004196167	
1740735010563	0.0077056885	
1740735010564	0.003967285	
1740735010565	-0.002822876	
1740735010566	-0.0064849854	
1740735010567	-0.012359619	
1740735010568	0.0022125244	
1740735010569	0.0061798096	
1740735010570	0.018157959	
1740735010571	0.01991272	
1740735010572	0.008010864	
1740735010573	0.010070801	
1740735010574	3.0517578E-4	
1740735010575	-0.016021729	
1740735010576	-0.02029419	
1740735010577	-0.0061798096	
1740735010578	0.0021362305	
1740735010579	-0.027160645	
1740735010580	-0.042877197	
1740735010581	-0.022583008	
1740735010582	0.006790161	
1740735010583	0.02494812	
1740735010584	0.029067993	
1740735010585	0.026626587	
1740735010586	0.008544922	
1740735010587	-0.005264282	
1740735010588	-0.00831604	
1740735010589	0.007247925	
1740735010590	0.018081665	
1740735010591	0.008239746	
1740735010592	0.0015258789	
1740735010593	-0.004196167	
1740735010594	-0.02128601	
1740735010595	-0.025482178	
1740735010596	-0.008773804	
1740735010597	-0.0025939941	
1740735010598	-0.001373291	
1740735010599	0.010681152	
1740735010600	0.022354126	
1740735010601	0.019836426	
1740735010602	0.0077056885	
1740735010603	-0.00793457	
1740735010604	-0.012741089	
1740735010605	-0.005874634	
1740735010606	0.0076293945	
1740735010607	-0.0011444092	
1740735010608	-0.009002686	
1740735010609	-0.009536743	
1740735010610	-0.018157959	
1740735010611	-0.015029907	
1740735010612	-0.01083374	
1740735010613	-0.002670288	
1740735010614	0.011520386	
1740735010615	0.009002686	
1740735010616	0.009460449	
1740735010617	0.010528564	
1740735010618	0.015487671	
1740735010619	0.008163452	
1740735010620	-0.0038909912	
1740735010621	0.0038909912	
1740735010622	8.392334E-4	
1740735010623	-0.0023651123	
1740735010624	-0.0051879883	
1740735010625	-0.0132751465	
1740735010626	-0.007858276	
1740735010627	-8.392334E-4	
1740735010628	-0.0017547607	
1740735010629	-0.014190674	
1740735010630	-0.0060272217	
1740735010631	-0.0032806396	
1740735010632	-0.009918213	
1740735010633	0.0023651123	
1740735010634	0.005340576	
1740735010635	0.005493164	
1740735010636	0.008010864	
1740735010637	0.009536743	
1740735010638	0.013961792	
1740735010639	0.008621216	
1740735010640	0.004043579	
1740735010641	-0.008468628	
1740735010642	-0.0012207031	
1740735010643	0.0033569336	
1740735010644	0.0015258789	
1740735010645	-0.0010681152	
1740735010646	-0.013198853	
1740735010647	-0.0012207031	
1740735010648	0.0075531006	
1740735010649	0.00541687	
1740735010650	-0.0012207031	
1740735010651	-0.004425049	
1740735010652	0.0035858154	
1740735010653	0.010147095	
1740735010654	0.010147095	
1740735010655	7.6293945E-5	
1740735010656	-0.01586914	
1740735010657	-0.024871826	
1740735010658	-0.025253296	
1740735010659	-0.016708374	
1740735010660	-0.009460449	
1740735010661	-4.5776367E-4	
1740735010662	0.012207031	
1740735010663	0.009841919	
1740735010664	0.006942749	
1740735010665	0.01335144	
1740735010666	0.0045776367	
1740735010667	-0.00869751	
1740735010668	-0.0074768066	
1740735010669	3.8146973E-4	
1740735010670	-0.0022125244	
1740735010671	0.008468628	
1740735010672	0.013198853	
1740735010673	0.0048065186	
1740735010674	0.014343262	
1740735010675	0.012893677	
1740735010676	-0.00579834	
1740735010677	-0.018005371	
1740735010678	-0.00579834	
1740735010679	0.0034332275	
1740735010680	0.0048828125	
1740735010681	0.012664795	
1740735010682	0.0029754639	
1740735010683	-0.013427734	
1740735010684	-0.008850098	
1740735010685	-0.00793457	
1740735010686	-0.03715515	
1740735010687	-0.018844604	
1740735010688	0.02067566	
1740735010689	0.011444092	
1740735010690	0.0059509277	
1740735010691	0.004272461	
1740735010692	-0.005569458	
1740735010693	-4.5776367E-4	
1740735010694	3.8146973E-4	
1740735010695	0.0017547607	
1740735010696	0.010147095	
1740735010697	0.017471313	
1740735010698	0.0104522705	
1740735010699	-0.0046539307	
1740735010700	-0.0077056885	
1740735010701	-0.017623901	
1740735010702	-0.014266968	
1740735010703	0.011444092	
1740735010704	0.017471313	
1740735010705	0.01159668	
1740735010706	0.005722046	
1740735010707	-0.0065612793	
1740735010708	-0.014877319	
1740735010709	-0.016403198	
1740735010710	-0.023117065	
1740735010711	-0.009231567	
1740735010712	0.012893677	
1740735010713	-0.0031280518	
1740735010714	0.0010681152	
1740735010715	0.0132751465	
1740735010716	0.0061798096	
1740735010717	0.010986328	
1740735010718	0.0051116943	
1740735010719	7.6293945E-4	
1740735010720	0.01121521	
1740735010721	0.0036621094	
1740735010722	-0.0132751465	
1740735010723	-0.015182495	
1740735010724	-0.008621216	
1740735010725	0.00869751	
1740735010726	-0.002670288	
1740735010727	-0.02998352	
1740735010728	-0.0023651123	
1740735010729	0.025253296	
1740735010730	0.015411377	
1740735010731	0.016174316	
1740735010732	0.0015258789	
1740735010733	-0.015182495	
1740735010734	-0.011367798	
1740735010735	-0.0104522705	
1740735010736	0.012283325	
1740735010737	0.016937256	
1740735010738	0.0025177002	
1740735010739	-0.005340576	
1740735010740	-0.025177002	
1740735010741	-0.037612915	
1740735010742	-0.036468506	
1740735010743	-0.0059509277	
1740735010744	0.02532959	
1740735010745	0.01411438	
1740735010746	0.010528564	
1740735010747	0.011444092	
1740735010748	0.018157959	
1740735010749	0.021972656	
1740735010750	0.0118255615	
1740735010751	0.008850098	
1740735010752	-0.0019073486	
1740735010753	-0.013961792	
1740735010754	-0.018157959	
1740735010755	-0.009536743	
1740735010756	-0.0016021729	
1740735010757	-2.2888184E-4	
1740735010758	0.008392334	
1740735010759	0.014953613	
1740735010760	0.016555786	
1740735010761	0.005264282	
1740735010762	-0.01739502	
1740735010763	-0.032958984	
1740735010764	-0.02067566	
1740735010765	0.01739502	
1740735010766	0.018005371	
1740735010767	0.004043579	
1740735010768	0.008392334	
1740735010769	-0.006942749	
1740735010770	-0.016784668	
1740735010771	-0.00289917	
1740735010772	0.007095337	
1740735010773	0.0012207031	
1740735010774	-0.010681152	
1740735010775	-0.004043579	
1740735010776	4.5776367E-4	
1740735010777	0.004196167	
1740735010778	0.0022888184	
1740735010779	-0.005569458	
1740735010780	0.0031280518	
1740735010781	0.0034332275	
1740735010782	0.0018310547	
1740735010783	0.005493164	
1740735010784	-0.002670288	
1740735010785	-4.5776367E-4	
1740735010786	-0.0034332275	
1740735010787	-0.017852783	
1740735010788	-0.014801025	
1740735010789	-0.01586914	
1740735010790	-0.010299683	
1740735010791	0.0059509277	
1740735010792	0.0065612793	
1740735010793	0.00579834	
1740735010794	0.013580322	
1740735010795	0.009460449	
1740735010796	0.008621216	
1740735010797	0.018310547	
1740735010798	0.021438599	
1740735010799	0.021133423	
1740735010800	0.0065612793	
1740735010801	-0.018463135	
1740735010802	-0.036010742	
1740735010803	-0.046539307	
1740735010804	-0.00579834	
1740735010805	0.0415802	
1740735010806	0.030822754	
1740735010807	0.0074005127	
1740735010808	-0.02670288	
1740735010809	-0.03677368	
1740735010810	7.6293945E-4	
1740735010811	-0.0049591064	
1740735010812	-0.0132751465	
1740735010813	0.013961792	
1740735010814	0.017852783	
1740735010815	0.029373169	
1740735010816	0.03929138	
1740735010817	0.013122559	
1740735010818	-0.02456665	
1740735010819	-0.05706787	
1740735010820	-0.06111145	
1740735010821	-0.018920898	
1740735010822	0.017166138	
1740735010823	0.02067566	
1740735010824	0.021133423	
1740735010825	0.014877319	
1740735010826	0.01159668	
1740735010827	0.010757446	
1740735010828	0.0051116943	
1740735010829	-7.6293945E-4	
1740735010830	-0.0038146973	
1740735010831	7.6293945E-5	
1740735010832	0.015029907	
1740735010833	0.03303528	
1740735010834	0.019989014	
1740735010835	-0.022277832	
1740735010836	-0.05645752	
1740735010837	-0.03501892	
1740735010838	0.007095337	
1740735010839	0.0037384033	
1740735010840	-0.011367798	
1740735010841	-0.01739502	
1740735010842	-0.00289917	
1740735010843	0.009689331	
1740735010844	0.004501343	
1740735010845	0.014419556	
1740735010846	0.0020599365	
1740735010847	-0.024337769	
1740735010848	-0.01083374	
1740735010849	-0.0038909912	
1740735010850	8.392334E-4	
1740735010851	0.017166138	
1740735010852	0.031967163	
1740735010853	0.032424927	
1740735010854	0.009384155	
1740735010855	-1.5258789E-4	
1740735010856	-0.0012207031	
1740735010857	-0.004196167	
1740735010858	-6.866455E-4	
1740735010859	-0.003967285	
1740735010860	-2.2888184E-4	
1740735010861	-0.0049591064	
1740735010862	-0.010375977	
1740735010863	-0.009384155	
1740735010864	-0.0064086914	
1740735010865	0.005493164	
1740735010866	0.0118255615	
1740735010867	0.013580322	
1740735010868	0.007171631	
1740735010869	-0.023880005	
1740735010870	-0.047225952	
1740735010871	-0.020828247	
1740735010872	0.0090789795	
1740735010873	0.006713867	
1740735010874	0.005340576	
1740735010875	0.008163452	
1740735010876	-0.0021362305	
1740735010877	-9.918213E-4	
1740735010878	-3.0517578E-4	
1740735010879	0.008926392	
1740735010880	0.016937256	
1740735010881	0.001449585	
1740735010882	0.001449585	
1740735010883	0.0036621094	
1740735010884	0.001373291	
1740735010885	0.0022888184	
1740735010886	0.003967285	
1740735010887	0.0119018555	
1740735010888	0.0059509277	
1740735010889	-0.01373291	
1740735010890	-0.031433105	
1740735010891	-0.024719238	
1740735010892	-0.01373291	
1740735010893	-0.0025177002	
1740735010894	2.2888184E-4	
1740735010895	0.004272461	
1740735010896	0.008239746	
1740735010897	0.014419556	
1740735010898	0.009765625	
1740735010899	-0.0011444092	
1740735010900	-0.0031280518	
1740735010901	-0.0022125244	
1740735010902	0.010299683	
1740735010903	0.014953613	
1740735010904	0.010757446	
1740735010905	-0.006866455	
1740735010906	-0.01625061	
1740735010907	0.012664795	
1740735010908	0.008163452	
1740735010909	0.0	
1740735010910	0.009765625	
1740735010911	-0.005569458	
1740735010912	-0.0118255615	
1740735010913	-0.021362305	
1740735010914	-0.020370483	
1740735010915	0.008621216	
1740735010916	0.007095337	
1740735010917	-0.0035095215	
1740735010918	-0.014572144	
1740735010919	-0.017242432	
1740735010920	0.009307861	
1740735010921	0.015945435	
1740735010922	0.014343262	
1740735010923	0.023345947	
1740735010924	0.015640259	
1740735010925	0.001373291	
1740735010926	0.0035858154	
1740735010927	-9.918213E-4	
1740735010928	-0.014877319	
1740735010929	-0.015487671	
1740735010930	-0.020751953	
1740735010931	-0.017623901	
1740735010932	-0.0011444092	
1740735010933	-0.004425049	
1740735010934	0.0074768066	
1740735010935	0.020980835	
1740735010936	0.0119018555	
1740735010937	0.008926392	
1740735010938	-0.0022888184	
1740735010939	-0.010604858	
1740735010940	-0.014801025	
1740735010941	-0.023422241	
1740735010942	-0.017242432	
1740735010943	0.0024414062	
1740735010944	0.012817383	
1740735010945	0.003967285	
1740735010946	-0.0051116943	
1740735010947	0.0037384033	
1740735010948	-3.8146973E-4	
1740735010949	-6.866455E-4	
1740735010950	0.016021729	
1740735010951	0.017623901	
1740735010952	0.015335083	
1740735010953	0.02357483	
1740735010954	0.008926392	
1740735010955	-0.01663208	
1740735010956	-0.011749268	
1740735010957	-0.017089844	
1740735010958	-0.032577515	
1740735010959	-0.026016235	
1740735010960	-0.009613037	
1740735010961	0.017242432	
1740735010962	0.021438599	
1740735010963	0.021972656	
1740735010964	0.029678345	
1740735010965	0.0048065186	
1740735010966	-0.018005371	
1740735010967	-0.008468628	
1740735010968	0.011138916	
1740735010969	0.011672974	
1740735010970	-0.008544922	
1740735010971	-0.024642944	
1740735010972	-0.021438599	
1740735010973	-0.027313232	
1740735010974	-0.020217896	
1740735010975	0.012893677	
1740735010976	0.021133423	
1740735010977	0.014572144	
1740735010978	0.0025177002	
1740735010979	0.0030517578	
1740735010980	0.010986328	
1740735010981	0.009307861	
1740735010982	-7.6293945E-5	
1740735010983	-0.01777649	
1740735010984	-0.018081665	
1740735010985	-0.0022888184	
1740735010986	0.005493164	
1740735010987	0.00541687	
1740735010988	0.00793457	
1740735010989	0.010223389	
1740735010990	0.0064086914	
1740735010991	3.8146973E-4	
1740735010992	0.008163452	
1740735010993	-8.392334E-4	
1740735010994	-0.010604858	
1740735010995	-0.008163452	
1740735010996	-0.019302368	
1740735010997	-0.018463135	
1740735010998	-0.0076293945	
1740735010999	0.010299683	
1740735011000	0.02166748	
1740735011001	0.0132751465	
1740735011002	0.008926392	
1740735011003	0.0050354004	
1740735011004	0.009231567	
1740735011005	0.009384155	
1740735011006	-0.005874634	
1740735011007	-0.012207031	
1740735011008	-0.01701355	
1740735011009	-0.021209717	
1740735011010	-0.017852783	
1740735011011	-0.00869751	
1740735011012	0.0050354004	
1740735011013	0.009536743	
1740735011014	0.008544922	
1740735011015	-7.6293945E-5	
1740735011016	-9.918213E-4	
1740735011017	0.008468628	
1740735011018	0.001373291	
1740735011019	0.0074768066	
1740735011020	0.008010864	
1740735011021	0.01083374	
1740735011022	0.01777649	
1740735011023	-0.0021362305	
1740735011024	-0.013809204	
1740735011025	-0.017166138	
1740735011026	-0.016555786	
1740735011027	-0.007095337	
1740735011028	0.010681152	
1740735011029	0.0077819824	
1740735011030	-0.005264282	
1740735011031	-0.022506714	
1740735011032	-0.035858154	
1740735011033	-0.00831604	
1740735011034	0.018081665	
1740735011035	0.018844604	
1740735011036	0.022964478	
1740735011037	0.024490356	
1740735011038	0.018234253	
1740735011039	0.0077819824	
1740735011040	-0.0062561035	
1740735011041	-0.014343262	
1740735011042	-0.010681152	
1740735011043	-0.010910034	
1740735011044	-0.017547607	
1740735011045	-0.01739502	
1740735011046	-0.008850098	
1740735011047	0.011978149	
1740735011048	0.018234253	
1740735011049	0.004272461	
1740735011050	0.0023651123	
1740735011051	-0.0012969971	
1740735011052	0.0023651123	
1740735011053	0.009841919	
1740735011054	0.009231567	
1740735011055	-0.0019073486	
1740735011056	-0.01739502	
1740735011057	-0.011367798	
1740735011058	7.6293945E-5	
1740735011059	0.0022125244	
1740735011060	0.0146484375	
1740735011061	0.015411377	
1740735011062	4.5776367E-4	
1740735011063	0.0065612793	
1740735011064	0.019989014	
1740735011065	0.012130737	
1740735011066	-0.014190674	
1740735011067	-0.04096985	
1740735011068	-0.0390625	
1740735011069	-0.019760132	
1740735011070	-0.002670288	
1740735011071	0.013046265	
1740735011072	0.011062622	
1740735011073	0.0030517578	
1740735011074	0.008621216	
1740735011075	0.0104522705	
1740735011076	0.0077056885	
1740735011077	0.012283325	
1740735011078	0.008926392	
1740735011079	0.0032806396	
1740735011080	-0.011062622	
1740735011081	-0.02357483	
1740735011082	-0.02029419	
1740735011083	-0.0060272217	
1740735011084	0.004348755	
1740735011085	-0.0059509277	
1740735011086	-0.004425049	
1740735011087	0.010910034	
1740735011088	0.004348755	
1740735011089	0.006790161	
1740735011090	0.006713867	
1740735011091	9.918213E-4	
1740735011092	-0.0025939941	
1740735011093	6.866455E-4	
1740735011094	0.019378662	
1740735011095	0.015411377	
1740735011096	-0.004501343	
1740735011097	-0.025024414	
1740735011098	-0.017547607	
1740735011099	0.009155273	
1740735011100	0.026168823	
1740735011101	0.02532959	
1740735011102	-0.0061035156	
1740735011103	-0.038146973	
1740735011104	-0.052871704	
1740735011105	-0.019302368	
1740735011106	0.014038086	
1740735011107	0.014266968	
1740735011108	0.021896362	
1740735011109	0.0016784668	
1740735011110	-0.0060272217	
1740735011111	0.021438599	
1740735011112	0.023422241	
1740735011113	0.010299683	
1740735011114	-0.0047302246	
1740735011115	0.0025939941	
1740735011116	-0.0010681152	
1740735011117	-0.008544922	
1740735011118	0.0063323975	
1740735011119	0.01083374	
1740735011120	0.0076293945	
1740735011121	-0.008850098	
1740735011122	-0.024337769	
1740735011123	-0.011520386	
1740735011124	-0.0022888184	
1740735011125	-0.005264282	
1740735011126	0.0051879883	
1740735011127	0.010299683	
1740735011128	-0.005874634	
1740735011129	-0.026473999	
1740735011130	-0.026397705	
1740735011131	-0.005645752	
1740735011132	-0.012893677	
1740735011133	-0.014266968	
1740735011134	-0.0016021729	
1740735011135	0.0035858154	
1740735011136	0.025863647	
1740735011137	0.033798218	
1740735011138	0.014038086	
1740735011139	0.009994507	
1740735011140	0.012207031	
1740735011141	-0.00579834	
1740735011142	-0.015563965	
1740735011143	0.005264282	
1740735011144	0.01083374	
1740735011145	-0.016174316	
1740735011146	-0.0045776367	
1740735011147	0.019454956	
1740735011148	0.016479492	
1740735011149	0.004501343	
1740735011150	-0.007171631	
1740735011151	0.0029754639	
1740735011152	0.010681152	
1740735011153	-0.009307861	
1740735011154	-0.030059814	
1740735011155	-0.030670166	
1740735011156	-0.017547607	
1740735011157	-0.0016784668	
1740735011158	0.010604858	
1740735011159	0.012664795	
1740735011160	0.008010864	
1740735011161	-0.0024414062	
1740735011162	-0.0032043457	
1740735011163	0.0025939941	
1740735011164	0.0025177002	
1740735011165	-7.6293945E-5	
1740735011166	7.6293945E-4	
1740735011167	0.0029754639	
1740735011168	0.004425049	
1740735011169	0.0065612793	
1740735011170	-0.00289917	
1740735011171	-0.0019073486	
1740735011172	0.0104522705	
1740735011173	0.0025177002	
1740735011174	-0.019302368	
1740735011175	-0.028305054	
1740735011176	-0.014572144	
1740735011177	-0.0075531006	
1740735011178	-0.012130737	
1740735011179	-2.2888184E-4	
1740735011180	0.0118255615	
1740735011181	0.01739502	
1740735011182	0.02456665	
1740735011183	0.017623901	
1740735011184	0.005340576	
1740735011185	0.012741089	
1740735011186	0.0064849854	
1740735011187	0.0035095215	
1740735011188	0.0018310547	
1740735011189	5.340576E-4	
1740735011190	-0.0032043457	
1740735011191	-0.0019073486	
1740735011192	0.00831604	
1740735011193	-0.009155273	
1740735011194	-0.031967163	
1740735011195	-0.028762817	
1740735011196	-0.012359619	
1740735011197	8.392334E-4	
1740735011198	-0.0051879883	
1740735011199	0.0047302246	
1740735011200	0.018615723	
1740735011201	0.018005371	
1740735011202	0.004501343	
1740735011203	-0.012741089	
1740735011204	-0.009155273	
1740735011205	0.0011444092	
1740735011206	0.0050354004	
1740735011207	0.0012969971	
1740735011208	0.0019073486	
1740735011209	0.0077056885	
1740735011210	0.009765625	
1740735011211	0.007171631	
1740735011212	-0.0063323975	
1740735011213	-0.02418518	
1740735011214	-0.021133423	
1740735011215	-0.0022125244	
1740735011216	-0.0090789795	
1740735011217	-0.012207031	
1740735011218	0.017242432	
1740735011219	0.018234253	
1740735011220	0.013504028	
1740735011221	0.014724731	
1740735011222	3.8146973E-4	
1740735011223	9.1552734E-4	
1740735011224	-0.0017547607	
1740735011225	0.0022888184	
1740735011226	-0.004196167	
1740735011227	-0.015640259	
1740735011228	-0.014419556	
1740735011229	-0.0059509277	
1740735011230	0.018997192	
1740735011231	0.026855469	
1740735011232	-0.0019836426	
1740735011233	-0.01838684	
1740735011234	-0.0060272217	
1740735011235	1.5258789E-4	
1740735011236	-7.6293945E-4	
1740735011237	-0.007019043	
1740735011238	-0.016326904	
1740735011239	0.0	
1740735011240	0.012283325	
1740735011241	0.009841919	
1740735011242	0.009384155	
1740735011243	-0.002822876	
1740735011244	-0.0038909912	
1740735011245	0.010681152	
1740735011246	8.392334E-4	
1740735011247	-0.002822876	
1740735011248	-0.0064849854	
1740735011249	-0.02128601	
1740735011250	-0.00793457	
1740735011251	-0.00289917	
1740735011252	-0.004272461	
1740735011253	0.0011444092	
1740735011254	-9.1552734E-4	
1740735011255	0.00289917	
1740735011256	0.0074768066	
1740735011257	0.010070801	
1740735011258	0.02357483	
1740735011259	0.02861023	
1740735011260	0.007171631	
1740735011261	-0.014877319	
1740735011262	-0.023727417	
1740735011263	-0.013809204	
1740735011264	-0.008010864	
1740735011265	-0.01335144	
1740735011266	-0.009002686	
1740735011267	0.0019073486	
1740735011268	0.01159668	
1740735011269	0.005493164	
1740735011270	-0.012054443	
1740735011271	-0.0118255615	
1740735011272	-0.0032043457	
1740735011273	0.009307861	
1740735011274	0.02029419	
1740735011275	0.012130737	
1740735011276	0.00541687	
1740735011277	0.0038146973	
1740735011278	0.004272461	
1740735011279	9.1552734E-4	
1740735011280	0.0011444092	
1740735011281	0.0012207031	
1740735011282	-0.015716553	
1740735011283	-0.01663208	
1740735011284	-0.0012969971	
1740735011285	0.003967285	
1740735011286	-0.008544922	
1740735011287	-0.017852783	
1740735011288	-0.011444092	
1740735011289	-0.005569458	
1740735011290	-0.0018310547	
1740735011291	0.012359619	
1740735011292	0.03074646	
1740735011293	0.03227234	
1740735011294	0.014953613	
1740735011295	-0.018234253	
1740735011296	-0.034942627	
1740735011297	-0.015106201	
1740735011298	-0.008544922	
1740735011299	0.0061798096	
1740735011300	0.012664795	
1740735011301	-8.392334E-4	
1740735011302	0.0062561035	
1740735011303	0.0025939941	
1740735011304	0.005264282	
1740735011305	0.010910034	
1740735011306	-0.0016784668	
1740735011307	7.6293945E-5	
1740735011308	-0.0020599365	
1740735011309	-0.0066375732	
1740735011310	0.008468628	
1740735011311	0.015106201	
1740735011312	0.005264282	
1740735011313	-0.009613037	
1740735011314	-0.022125244	
1740735011315	-0.016174316	
1740735011316	-0.0038909912	
1740735011317	-0.002822876	
1740735011318	-0.0029754639	
1740735011319	0.0063323975	
1740735011320	0.007171631	
1740735011321	3.0517578E-4	
1740735011322	-0.0018310547	
1740735011323	9.1552734E-4	
1740735011324	0.004272461	
1740735011325	0.005722046	
1740735011326	-0.004196167	
1740735011327	-0.013961792	
1740735011328	0.0	
1740735011329	0.010070801	
1740735011330	0.0048065186	
1740735011331	0.0015258789	
1740735011332	0.0025939941	
1740735011333	-3.8146973E-4	
1740735011334	-2.2888184E-4	
1740735011335	0.007171631	
1740735011336	0.004425049	
1740735011337	-0.015716553	
1740735011338	-0.023345947	
1740735011339	-0.004425049	
1740735011340	0.0033569336	
1740735011341	-0.0035095215	
1740735011342	7.6293945E-5	
1740735011343	0.008010864	
1740735011344	0.0059509277	
1740735011345	0.0032043457	
1740735011346	-0.00289917	
1740735011347	-0.011672974	
1740735011348	-0.008239746	
1740735011349	0.013122559	
1740735011350	0.02670288	
1740735011351	0.011749268	
1740735011352	-0.01373291	
1740735011353	-0.008621216	
1740735011354	0.010223389	
1740735011355	-3.8146973E-4	
1740735011356	-0.012969971	
1740735011357	-0.0019073486	
1740735011358	0.0015258789	
1740735011359	-0.005874634	
1740735011360	-0.004348755	
1740735011361	0.006790161	
1740735011362	0.010528564	
1740735011363	0.0063323975	
1740735011364	0.005340576	
1740735011365	-0.0063323975	
1740735011366	-0.011367798	
1740735011367	-0.0061798096	
1740735011368	-0.006713867	
1740735011369	0.004501343	
1740735011370	0.0074768066	
1740735011371	0.015106201	
1740735011372	0.025482178	
1740735011373	0.0050354004	
1740735011374	-0.014419556	
1740735011375	-0.02281189	
1740735011376	-0.019836426	
1740735011377	-0.016098022	
1740735011378	-0.025177002	
1740735011379	-0.013046265	
1740735011380	0.005569458	
1740735011381	0.017318726	
1740735011382	0.021896362	
1740735011383	-0.004196167	
1740735011384	-0.029754639	
1740735011385	-0.018615723	
1740735011386	0.018234253	
1740735011387	0.007858276	
1740735011388	-0.008544922	
1740735011389	0.033798218	
1740735011390	0.031585693	
1740735011391	0.010147095	
1740735011392	0.015182495	
1740735011393	-0.001449585	
1740735011394	0.0066375732	
1740735011395	0.017929077	
1740735011396	-0.0104522705	
1740735011397	-0.019302368	
1740735011398	-0.0010681152	
1740735011399	0.015945435	
1740735011400	-0.0034332275	
1740735011401	-0.025405884	
1740735011402	-0.010681152	
1740735011403	-0.0074005127	
1740735011404	-0.010757446	
1740735011405	-0.01586914	
1740735011406	-0.02532959	
1740735011407	-0.008239746	
1740735011408	0.015182495	
1740735011409	0.009155273	
1740735011410	-0.008850098	
1740735011411	-0.008163452	
1740735011412	0.0031280518	
1740735011413	0.006942749	
1740735011414	0.012207031	
1740735011415	0.009918213	
1740735011416	0.008544922	
1740735011417	0.01411438	
1740735011418	0.0064086914	
1740735011419	-0.014953613	
1740735011420	-0.019226074	
1740735011421	0.0020599365	
1740735011422	0.011062622	
1740735011423	0.0016784668	
1740735011424	0.0032043457	
1740735011425	-0.0049591064	
1740735011426	-0.012359619	
1740735011427	0.0012207031	
1740735011428	-0.0018310547	
1740735011429	-0.00579834	
1740735011430	0.006713867	
1740735011431	0.015792847	
1740735011432	0.014038086	
1740735011433	0.0019073486	
1740735011434	-3.0517578E-4	
1740735011435	0.004272461	
1740735011436	0.0061035156	
1740735011437	0.004501343	
1740735011438	-0.019607544	
1740735011439	-0.027618408	
1740735011440	-0.007858276	
1740735011441	-0.008621216	
1740735011442	-0.002670288	
1740735011443	0.013122559	
1740735011444	0.0077056885	
1740735011445	2.2888184E-4	
1740735011446	-0.0050354004	
1740735011447	0.00541687	
1740735011448	0.008087158	
1740735011449	-0.008544922	
1740735011450	0.0012969971	
1740735011451	0.010299683	
1740735011452	0.0020599365	
1740735011453	0.004119873	
1740735011454	-0.0038909912	
1740735011455	-0.022201538	
1740735011456	-0.016021729	
1740735011457	0.006790161	
1740735011458	0.005569458	
1740735011459	-0.0064849854	
1740735011460	-0.008087158	
1740735011461	0.0023651123	
1740735011462	0.014572144	
1740735011463	0.0023651123	
1740735011464	-0.012741089	
1740735011465	0.0037384033	
1740735011466	0.02067566	
1740735011467	0.021820068	
1740735011468	0.015945435	
1740735011469	2.2888184E-4	
1740735011470	-0.024719238	
1740735011471	-0.025787354	
1740735011472	-0.005493164	
1740735011473	-0.007019043	
1740735011474	-0.015182495	
1740735011475	-0.0048828125	
1740735011476	0.015716553	
1740735011477	0.02204895	
1740735011478	0.016021729	
1740735011479	0.0046539307	
1740735011480	-0.0064849854	
1740735011481	-0.009231567	
1740735011482	-0.010681152	
1740735011483	0.0049591064	
1740735011484	0.019683838	
1740735011485	0.0012207031	
1740735011486	-0.0074768066	
1740735011487	-0.0022888184	
1740735011488	-0.0038909912	
1740735011489	0.0050354004	
1740735011490	0.010681152	
1740735011491	9.918213E-4	
1740735011492	-0.015106201	
1740735011493	-0.0146484375	
1740735011494	3.8146973E-4	
1740735011495	0.002822876	
1740735011496	-0.01159668	
1740735011497	-0.0048065186	
1740735011498	1.5258789E-4	
1740735011499	-0.0048828125	
1740735011500	0.007858276	
1740735011501	0.0045776367	
1740735011502	0.004196167	
1740735011503	0.01449585	
1740735011504	-0.0022888184	
1740735011505	-0.011672974	
1740735011506	-0.012283325	
1740735011507	-0.0118255615	
1740735011508	0.008468628	
1740735011509	0.015106201	
1740735011510	0.012969971	
1740735011511	-0.005722046	
1740735011512	-0.04135132	
1740735011513	-0.030899048	
1740735011514	0.002822876	
1740735011515	0.008087158	
1740735011516	0.014724731	
1740735011517	0.013427734	
1740735011518	0.01335144	
1740735011519	0.027160645	
1740735011520	0.014724731	
1740735011521	0.007019043	
1740735011522	0.005340576	
1740735011523	-0.0019836426	
1740735011524	0.0025939941	
1740735011525	-7.6293945E-4	
1740735011526	-0.0011444092	
1740735011527	-0.005264282	
1740735011528	-0.020751953	
1740735011529	-0.010757446	
1740735011530	0.0073242188	
1740735011531	-0.0022888184	
1740735011532	-0.018692017	
1740735011533	-0.02243042	
1740735011534	-0.03303528	
1740735011535	-0.008544922	
1740735011536	0.024490356	
1740735011537	0.013427734	
1740735011538	0.012588501	
1740735011539	0.011138916	
1740735011540	0.0038909912	
1740735011541	0.0048065186	
1740735011542	0.015106201	
1740735011543	0.032196045	
1740735011544	0.019760132	
1740735011545	-0.0029754639	
1740735011546	-0.026779175	
1740735011547	-0.054779053	
1740735011548	-0.039749146	
1740735011549	-0.0012969971	
1740735011550	0.009689331	
1740735011551	0.010528564	
1740735011552	0.020446777	
1740735011553	0.01121521	
1740735011554	-0.016326904	
1740735011555	-0.01991272	
1740735011556	0.0049591064	
1740735011557	0.021820068	
1740735011558	0.0050354004	
1740735011559	0.0025939941	
1740735011560	0.02067566	
1740735011561	0.011672974	
1740735011562	-0.0029754639	
1740735011563	-0.0066375732	
1740735011564	-0.007858276	
1740735011565	0.0050354004	
1740735011566	0.012741089	
1740735011567	-0.0031280518	
1740735011568	-0.0038146973	
1740735011569	0.009307861	
1740735011570	-0.0064849854	
1740735011571	-0.037841797	
1740735011572	-0.03807068	
1740735011573	-0.0018310547	
1740735011574	0.009994507	
1740735011575	-0.0035858154	
1740735011576	0.009994507	
1740735011577	0.020904541	
1740735011578	0.026397705	
1740735011579	0.017471313	
1740735011580	-0.013656616	
1740735011581	-0.014343262	
1740735011582	-0.006790161	
1740735011583	-0.008010864	
1740735011584	-0.0020599365	
1740735011585	0.0033569336	
1740735011586	0.0051116943	
1740735011587	1.5258789E-4	
1740735011588	-0.008926392	
1740735011589	-0.010147095	
1740735011590	-0.004501343	
1740735011591	0.008010864	
1740735011592	0.010604858	
1740735011593	0.0016784668	
1740735011594	-0.0018310547	
1740735011595	0.002670288	
1740735011596	0.015029907	
1740735011597	0.019378662	
1740735011598	0.013809204	
1740735011599	-0.0036621094	
1740735011600	-0.027313232	
1740735011601	-0.032043457	
1740735011602	-0.0035095215	
1740735011603	0.0030517578	
1740735011604	-0.016784668	
1740735011605	-0.01411438	
1740735011606	0.001373291	
1740735011607	0.009536743	
1740735011608	0.016174316	
1740735011609	0.014877319	
1740735011610	0.008163452	
1740735011611	0.005264282	
1740735011612	0.009689331	
1740735011613	0.011978149	
1740735011614	-0.00579834	
1740735011615	-0.012741089	
1740735011616	-0.0049591064	
1740735011617	-0.008239746	
1740735011618	-0.0073242188	
1740735011619	-1.5258789E-4	
1740735011620	5.340576E-4	
1740735011621	5.340576E-4	
1740735011622	-0.004501343	
1740735011623	-0.0074768066	
1740735011624	-0.0036621094	
1740735011625	0.010375977	
1740735011626	0.015716553	
1740735011627	6.1035156E-4	
1740735011628	0.0024414062	
1740735011629	0.004119873	
1740735011630	-0.007858276	
1740735011631	-0.00541687	
1740735011632	-0.0031280518	
1740735011633	0.0024414062	
1740735011634	-0.0029754639	
1740735011635	-0.04119873	
1740735011636	-0.030288696	
1740735011637	0.02128601	
1740735011638	0.029296875	
1740735011639	0.015106201	
1740735011640	0.010528564	
1740735011641	0.007095337	
1740735011642	0.008239746	
1740735011643	0.004348755	
1740735011644	-0.011291504	
1740735011645	-0.020980835	
1740735011646	-0.017929077	
1740735011647	0.0025177002	
1740735011648	0.019989014	
1740735011649	0.014419556	
1740735011650	0.004119873	
1740735011651	-0.004043579	
1740735011652	-0.005722046	
1740735011653	-0.0020599365	
1740735011654	-0.0032043457	
1740735011655	0.009536743	
1740735011656	0.01876831	
1740735011657	0.009002686	
1740735011658	0.0075531006	
1740735011659	-0.005722046	
1740735011660	-0.024795532	
1740735011661	-0.03425598	
1740735011662	-0.03868103	
1740735011663	-0.018157959	
1740735011664	0.0035858154	
1740735011665	0.0032806396	
1740735011666	0.01953125	
1740735011667	0.027923584	
1740735011668	0.0077056885	
1740735011669	-0.010147095	
1740735011670	-0.019836426	
1740735011671	-0.012969971	
1740735011672	0.00289917	
1740735011673	0.017471313	
1740735011674	0.034103394	
1740735011675	0.04638672	
1740735011676	0.022277832	
1740735011677	-0.021896362	
1740735011678	-0.037078857	
1740735011679	-0.016937256	
1740735011680	0.009765625	
1740735011681	0.011749268	
1740735011682	-0.0061035156	
1740735011683	-0.010681152	
1740735011684	6.866455E-4	
1740735011685	0.0064086914	
1740735011686	0.013122559	
1740735011687	0.0073242188	
1740735011688	-0.023422241	
1740735011689	-0.026245117	
1740735011690	-9.918213E-4	
1740735011691	0.0036621094	
1740735011692	7.6293945E-4	
1740735011693	0.0061798096	
1740735011694	-0.0019836426	
1740735011695	0.008010864	
1740735011696	0.02067566	
1740735011697	0.004119873	
1740735011698	-0.0076293945	
1740735011699	-0.012588501	
1740735011700	-0.020141602	
1740735011701	-0.014572144	
1740735011702	-9.918213E-4	
1740735011703	0.005569458	
1740735011704	0.005264282	
1740735011705	0.005645752	
1740735011706	0.0073242188	
1740735011707	0.00831604	
1740735011708	0.0030517578	
1740735011709	0.0064849854	
1740735011710	0.010910034	
1740735011711	0.013046265	
1740735011712	0.001449585	
1740735011713	-0.018234253	
1740735011714	-0.012207031	
1740735011715	-0.021438599	
1740735011716	-0.037460327	
1740735011717	-0.02784729	
1740735011718	-0.0045776367	
1740735011719	0.008544922	
1740735011720	0.001449585	
1740735011721	0.009689331	
1740735011722	0.017623901	
1740735011723	0.019760132	
1740735011724	0.02822876	
1740735011725	0.016860962	
1740735011726	0.005493164	
1740735011727	0.0076293945	
1740735011728	0.008087158	
1740735011729	0.017929077	
1740735011730	0.020141602	
1740735011731	-0.0022125244	
1740735011732	-0.017547607	
1740735011733	-0.025787354	
1740735011734	-0.021514893	
1740735011735	-0.012359619	
1740735011736	-0.018234253	
1740735011737	-0.008773804	
1740735011738	0.009765625	
1740735011739	0.01411438	
1740735011740	-0.009918213	
1740735011741	-0.03616333	
1740735011742	-0.022506714	
1740735011743	-0.0037384033	
1740735011744	-9.1552734E-4	
1740735011745	0.022659302	
1740735011746	0.031585693	
1740735011747	0.015335083	
1740735011748	0.010604858	
1740735011749	0.0011444092	
1740735011750	0.007247925	
1740735011751	0.013427734	
1740735011752	9.918213E-4	
1740735011753	6.1035156E-4	
1740735011754	-0.011062622	
1740735011755	-0.0074005127	
1740735011756	0.006790161	
1740735011757	-0.004425049	
1740735011758	-0.008850098	
1740735011759	-0.017242432	
1740735011760	-0.011978149	
1740735011761	0.001373291	
1740735011762	2.2888184E-4	
1740735011763	0.0064086914	
1740735011764	0.0019073486	
1740735011765	-0.0031280518	
1740735011766	-7.6293945E-4	
1740735011767	-9.1552734E-4	
1740735011768	0.0050354004	
1740735011769	0.014877319	
1740735011770	0.023117065	
1740735011771	0.014190674	
1740735011772	-0.004196167	
1740735011773	-0.027313232	
1740735011774	-0.04508972	
1740735011775	-0.020980835	
1740735011776	0.0024414062	
1740735011777	-0.005264282	
1740735011778	-0.002822876	
1740735011779	-0.0022888184	
1740735011780	0.0030517578	
1740735011781	0.030822754	
1740735011782	0.03517151	
1740735011783	0.013809204	
1740735011784	-0.005264282	
1740735011785	-0.03479004	
1740735011786	-0.03616333	
1740735011787	0.015716553	
1740735011788	0.04447937	
1740735011789	0.024032593	
1740735011790	-0.0059509277	
1740735011791	-0.021743774	
1740735011792	-0.010528564	
1740735011793	0.0048065186	
1740735011794	0.013427734	
1740735011795	0.0289917	
1740735011796	0.011367798	
1740735011797	-0.022201538	
1740735011798	-5.340576E-4	
1740735011799	0.022583008	
1740735011800	0.008850098	
1740735011801	0.004425049	
1740735011802	8.392334E-4	
1740735011803	-0.011978149	
1740735011804	-0.033569336	
1740735011805	-0.0365448	
1740735011806	-0.020980835	
1740735011807	-0.014419556	
1740735011808	-0.004196167	
1740735011809	-0.0022125244	
1740735011810	-0.0090789795	
1740735011811	-0.0051116943	
1740735011812	0.0038909912	
1740735011813	0.008010864	
1740735011814	0.0289917	
1740735011815	0.031967163	
1740735011816	-0.0022888184	
1740735011817	-0.036315918	
1740735011818	-0.056610107	
1740735011819	-0.008926392	
1740735011820	0.034942627	
1740735011821	0.027923584	
1740735011822	0.030441284	
1740735011823	0.0031280518	
1740735011824	-0.00579834	
1740735011825	0.01625061	
1740735011826	6.866455E-4	
1740735011827	-1.5258789E-4	
1740735011828	0.0034332275	
1740735011829	-0.0073242188	
1740735011830	0.0010681152	
1740735011831	-0.0047302246	
1740735011832	-0.004501343	
1740735011833	0.007858276	
1740735011834	0.008468628	
1740735011835	0.010147095	
1740735011836	0.009613037	
1740735011837	-0.004196167	
1740735011838	-0.003967285	
1740735011839	0.001373291	
1740735011840	-0.009307861	
1740735011841	-0.0035095215	
1740735011842	0.009994507	
1740735011843	-0.0020599365	
1740735011844	-0.007858276	
1740735011845	-0.011062622	
1740735011846	-0.01991272	
1740735011847	-0.014724731	
1740735011848	-0.010299683	
1740735011849	-0.009536743	
1740735011850	7.6293945E-4	
1740735011851	0.015335083	
1740735011852	0.01953125	
1740735011853	0.009765625	
1740735011854	0.0022125244	
1740735011855	0.0037384033	
1740735011856	-0.001373291	
1740735011857	-0.018997192	
1740735011858	-0.01373291	
1740735011859	0.008087158	
1740735011860	0.012969971	
1740735011861	0.004348755	
1740735011862	-0.0074768066	
1740735011863	-0.010986328	
1740735011864	-0.003967285	
1740735011865	-0.0062561035	
1740735011866	-0.001373291	
1740735011867	0.026626587	
1740735011868	0.030822754	
1740735011869	0.011672974	
1740735011870	-0.010986328	
1740735011871	-0.03189087	
1740735011872	-0.013122559	
1740735011873	0.004196167	
1740735011874	-0.004272461	
1740735011875	-0.0045776367	
1740735011876	-0.008544922	
1740735011877	-0.014572144	
1740735011878	-0.0075531006	
1740735011879	0.013656616	
1740735011880	0.016098022	
1740735011881	0.007019043	
1740735011882	0.01777649	
1740735011883	0.018005371	
1740735011884	0.012664795	
1740735011885	0.009307861	
1740735011886	-0.01411438	
1740735011887	-0.027923584	
1740735011888	-0.006713867	
1740735011889	0.008621216	
1740735011890	0.0010681152	
1740735011891	-0.0034332275	
1740735011892	-0.0066375732	
1740735011893	-3.8146973E-4	
1740735011894	0.0074005127	
1740735011895	-0.005264282	
1740735011896	-0.012664795	
1740735011897	-0.020217896	
1740735011898	-0.026626587	
1740735011899	-0.00831604	
1740735011900	-0.009307861	
1740735011901	-0.015716553	
1740735011902	0.024414062	
1740735011903	0.07522583	
1740735011904	0.055999756	
1740735011905	0.014801025	
1740735011906	0.01121521	
1740735011907	-0.0060272217	
1740735011908	-0.013961792	
1740735011909	-0.015411377	
1740735011910	-0.038528442	
1740735011911	-0.01739502	
1740735011912	0.011520386	
1740735011913	0.0038909912	
1740735011914	0.0047302246	
1740735011915	-0.0048065186	
1740735011916	-0.022354126	
1740735011917	-0.01953125	
1740735011918	-0.0012207031	
1740735011919	3.0517578E-4	
1740735011920	-0.019760132	
1740735011921	-0.0118255615	
1740735011922	8.392334E-4	
1740735011923	-0.0064086914	
1740735011924	-0.0029754639	
1740735011925	-3.8146973E-4	
1740735011926	0.015258789	
1740735011927	0.022964478	
1740735011928	-0.0017547607	
1740735011929	-0.006942749	
1740735011930	0.0064849854	
1740735011931	0.02128601	
1740735011932	0.022506714	
1740735011933	0.015716553	
1740735011934	0.01991272	
1740735011935	0.01838684	
1740735011936	0.015792847	
1740735011937	-0.020370483	
1740735011938	-0.066223145	
1740735011939	-0.044021606	
1740735011940	-0.008926392	
1740735011941	0.004272461	
1740735011942	0.019073486	
1740735011943	0.011291504	
1740735011944	-4.5776367E-4	
1740735011945	0.0024414062	
1740735011946	0.009307861	
1740735011947	0.017318726	
1740735011948	0.0132751465	
1740735011949	-0.0011444092	
1740735011950	-0.011138916	
1740735011951	-0.008087158	
1740735011952	0.0048828125	
1740735011953	0.009613037	
1740735011954	0.0021362305	
1740735011955	0.0021362305	
1740735011956	0.008468628	
1740735011957	0.010147095	
1740735011958	0.007247925	
1740735011959	-0.006790161	
1740735011960	-0.03112793	
1740735011961	-0.04989624	
1740735011962	-0.02746582	
1740735011963	3.0517578E-4	
1740735011964	-0.011138916	
1740735011965	-0.0021362305	
1740735011966	0.01991272	
1740735011967	0.012664795	
1740735011968	0.012893677	
1740735011969	0.016021729	
1740735011970	0.016403198	
1740735011971	0.02281189	
1740735011972	0.010223389	
1740735011973	-0.002670288	
1740735011974	-0.012741089	
1740735011975	-0.013198853	
1740735011976	0.005569458	
1740735011977	-0.006942749	
1740735011978	-0.013122559	
1740735011979	6.866455E-4	
1740735011980	-7.6293945E-4	
1740735011981	0.0061035156	
1740735011982	0.0037384033	
1740735011983	-0.011291504	
1740735011984	-0.015563965	
1740735011985	-0.013046265	
1740735011986	-0.0132751465	
1740735011987	0.0036621094	
1740735011988	0.01701355	
1740735011989	0.0060272217	
1740735011990	-0.0011444092	
1740735011991	-0.008392334	
1740735011992	0.0047302246	
1740735011993	0.0118255615	
1740735011994	0.0032043457	
1740735011995	0.007858276	
1740735011996	0.007247925	
1740735011997	0.011062622	
1740735011998	0.015945435	
1740735011999	0.014266968	
1740735012000	0.012969971	
1740735012001	-0.0032043457	
1740735012002	-0.018463135	
1740735012003	-0.013809204	
1740735012004	-0.018539429	
1740735012005	-0.02746582	
1740735012006	-0.014801025	
1740735012007	0.0063323975	
1740735012008	0.02029419	
1740735012009	0.024642944	
1740735012010	0.011672974	
1740735012011	-0.008163452	
1740735012012	-0.009384155	
1740735012013	-0.005569458	
1740735012014	-9.918213E-4	
1740735012015	0.008468628	
1740735012016	0.0020599365	
1740735012017	-0.0018310547	
1740735012018	-0.020904541	
1740735012019	-0.035324097	
1740735012020	-0.0066375732	
1740735012021	0.008468628	
1740735012022	-0.0025939941	
1740735012023	-0.0029754639	
1740735012024	0.009918213	
1740735012025	0.022354126	
1740735012026	0.017929077	
1740735012027	0.0018310547	
1740735012028	-5.340576E-4	
1740735012029	-1.5258789E-4	
1740735012030	6.1035156E-4	
1740735012031	0.008087158	
1740735012032	0.0029754639	
1740735012033	-0.012817383	
1740735012034	-0.02670288	
1740735012035	-0.015182495	
1740735012036	0.0032043457	
1740735012037	0.0061035156	
1740735012038	0.0062561035	
1740735012039	-8.392334E-4	
1740735012040	-0.0019836426	
1740735012041	-0.008850098	
1740735012042	-0.01838684	
1740735012043	-0.007171631	
1740735012044	-0.008468628	
1740735012045	0.014724731	
1740735012046	0.055618286	
1740735012047	0.03982544	
1740735012048	0.01373291	
1740735012049	0.010604858	
1740735012050	0.0050354004	
1740735012051	0.0011444092	
1740735012052	-0.016555786	
1740735012053	-0.034713745	
1740735012054	-0.028686523	
1740735012055	-0.020828247	
1740735012056	-0.010604858	
1740735012057	0.002746582	
1740735012058	0.008850098	
1740735012059	0.0031280518	
1740735012060	-0.0063323975	
1740735012061	-0.0024414062	
1740735012062	0.002822876	
1740735012063	0.014190674	
1740735012064	0.035629272	
1740735012065	0.030899048	
1740735012066	-0.0060272217	
1740735012067	-0.0415802	
1740735012068	-0.034942627	
1740735012069	-0.0030517578	
1740735012070	-0.002746582	
1740735012071	-0.01373291	
1740735012072	-7.6293945E-5	
1740735012073	0.0032806396	
1740735012074	-0.009689331	
1740735012075	-0.010147095	
1740735012076	-0.0033569336	
1740735012077	0.01586914	
1740735012078	0.025558472	
1740735012079	0.015640259	
1740735012080	0.011367798	
1740735012081	0.0022888184	
1740735012082	-0.0048828125	
1740735012083	0.002670288	
1740735012084	0.0061035156	
1740735012085	0.0022125244	
1740735012086	-0.0012969971	
1740735012087	0.0077056885	
1740735012088	0.01953125	
1740735012089	0.010528564	
1740735012090	7.6293945E-5	
1740735012091	-0.006790161	
1740735012092	-0.009002686	
1740735012093	-0.007171631	
1740735012094	-0.023040771	
1740735012095	-0.03303528	
1740735012096	-0.01953125	
1740735012097	0.0024414062	
1740735012098	0.01663208	
1740735012099	0.022201538	
1740735012100	0.015182495	
1740735012101	-0.0065612793	
1740735012102	-0.023117065	
1740735012103	-0.025100708	
1740735012104	-0.0035858154	
1740735012105	0.013809204	
1740735012106	-0.005722046	
1740735012107	-0.019607544	
1740735012108	0.0077819824	
1740735012109	0.013046265	
1740735012110	4.5776367E-4	
1740735012111	0.006790161	
1740735012112	0.0074768066	
1740735012113	0.0059509277	
1740735012114	0.0035095215	
1740735012115	0.013198853	
1740735012116	0.017929077	
1740735012117	0.0022125244	
1740735012118	-0.0017547607	
1740735012119	0.004348755	
1740735012120	0.016098022	
1740735012121	0.015106201	
1740735012122	4.5776367E-4	
1740735012123	0.0036621094	
1740735012124	-6.1035156E-4	
1740735012125	-0.017318726	
1740735012126	-0.041275024	
1740735012127	-0.05104065	
1740735012128	-0.013809204	
1740735012129	0.0064849854	
1740735012130	0.004272461	
1740735012131	0.022277832	
1740735012132	0.006713867	
1740735012133	-0.0025177002	
1740735012134	0.01159668	
1740735012135	-0.0065612793	
1740735012136	-0.007171631	
1740735012137	-0.004501343	
1740735012138	-0.026473999	
1740735012139	-0.03250122	
1740735012140	-0.010757446	
1740735012141	0.016937256	
1740735012142	0.052337646	
1740735012143	0.06889343	
1740735012144	0.03677368	
1740735012145	0.010528564	
1740735012146	-0.0045776367	
1740735012147	-0.012588501	
1740735012148	-0.0049591064	
1740735012149	-0.00831604	
1740735012150	-0.0035095215	
1740735012151	-0.005874634	
1740735012152	-0.018310547	
1740735012153	-0.015792847	
1740735012154	-0.01411438	
1740735012155	-0.005493164	
1740735012156	-0.011291504	
1740735012157	-0.02494812	
1740735012158	-0.022277832	
1740735012159	-0.01373291	
1740735012160	0.00579834	
1740735012161	0.018005371	
1740735012162	0.027694702	
1740735012163	0.016098022	
1740735012164	-0.012588501	
1740735012165	-0.015182495	
1740735012166	-0.029907227	
1740735012167	-0.025405884	
1740735012168	0.013961792	
1740735012169	0.025253296	
1740735012170	0.0035858154	
1740735012171	-0.009460449	
1740735012172	0.018157959	
1740735012173	0.027694702	
1740735012174	0.015258789	
1740735012175	0.016326904	
1740735012176	-0.0012969971	
1740735012177	-0.0019073486	
1740735012178	0.016708374	
1740735012179	0.014724731	
1740735012180	0.0050354004	
1740735012181	0.0025177002	
1740735012182	0.009536743	
1740735012183	0.0016784668	
1740735012184	-0.008468628	
1740735012185	-0.012054443	
1740735012186	-0.021972656	
1740735012187	-0.012512207	
1740735012188	-0.0033569336	
1740735012189	-0.0022888184	
1740735012190	0.0034332275	
1740735012191	-0.01083374	
1740735012192	-0.016784668	
1740735012193	-0.012054443	
1740735012194	-7.6293945E-5	
1740735012195	0.016937256	
1740735012196	0.017852783	
1740735012197	0.0035858154	
1740735012198	-0.013885498	
1740735012199	-0.019760132	
1740735012200	-0.03074646	
1740735012201	-0.019607544	
1740735012202	0.032730103	
1740735012203	0.057144165	
1740735012204	0.02822876	
1740735012205	-0.009613037	
1740735012206	-0.017471313	
1740735012207	-0.02281189	
1740735012208	-0.034713745	
1740735012209	-0.03677368	
1740735012210	-0.02960205	
1740735012211	-0.008621216	
1740735012212	0.0049591064	
1740735012213	0.01083374	
1740735012214	0.013809204	
1740735012215	0.009002686	
1740735012216	0.019836426	
1740735012217	0.019760132	
1740735012218	0.015029907	
1740735012219	0.029830933	
1740735012220	0.03265381	
1740735012221	0.029678345	
1740735012222	0.021591187	
1740735012223	0.01373291	
1740735012224	0.004501343	
1740735012225	-0.029525757	
1740735012226	-0.04333496	
1740735012227	-0.028915405	
1740735012228	-0.019073486	
1740735012229	-0.002822876	
1740735012230	-0.0011444092	
1740735012231	-0.0048828125	
1740735012232	0.0035858154	
1740735012233	0.0038146973	
1740735012234	0.0046539307	
1740735012235	-0.004272461	
1740735012236	-0.014572144	
1740735012237	-0.008392334	
1740735012238	0.00289917	
1740735012239	0.012359619	
1740735012240	0.009689331	
1740735012241	-0.012283325	
1740735012242	-0.025787354	
1740735012243	-0.0132751465	
1740735012244	-0.015029907	
1740735012245	0.0012207031	
1740735012246	0.058898926	
1740735012247	0.052337646	
1740735012248	0.004272461	
1740735012249	-9.1552734E-4	
1740735012250	-0.0024414062	
1740735012251	-0.012893677	
1740735012252	-0.0046539307	
1740735012253	3.0517578E-4	
1740735012254	-0.012283325	
1740735012255	-0.018081665	
1740735012256	-0.00289917	
1740735012257	0.010986328	
1740735012258	4.5776367E-4	
1740735012259	-0.024490356	
1740735012260	-0.035476685	
1740735012261	-0.02357483	
1740735012262	0.004425049	
1740735012263	0.017852783	
1740735012264	0.00793457	
1740735012265	0.0046539307	
1740735012266	-0.004501343	
1740735012267	0.0030517578	
1740735012268	0.02067566	
1740735012269	0.017929077	
1740735012270	0.03540039	
1740735012271	0.03929138	
1740735012272	0.0032806396	
1740735012273	-0.038146973	
1740735012274	-0.04837036	
1740735012275	-0.023117065	
1740735012276	-0.01586914	
1740735012277	-0.020065308	
1740735012278	-0.0064849854	
1740735012279	0.025558472	
1740735012280	0.039215088	
1740735012281	0.0031280518	
1740735012282	-0.01411438	
1740735012283	0.004196167	
1740735012284	0.011978149	
1740735012285	0.021133423	
1740735012286	0.024642944	
1740735012287	0.017471313	
1740735012288	0.0025939941	
1740735012289	-0.025634766	
1740735012290	-0.027236938	
1740735012291	-0.0060272217	
1740735012292	-0.0038146973	
1740735012293	-0.0037384033	
1740735012294	0.009002686	
1740735012295	0.012969971	
1740735012296	0.00831604	
1740735012297	0.0016784668	
1740735012298	-0.0022125244	
1740735012299	0.005722046	
1740735012300	6.866455E-4	
1740735012301	-0.01083374	
1740735012302	-0.007095337	
1740735012303	-0.0048065186	
1740735012304	-0.012588501	
1740735012305	-0.02128601	
1740735012306	-0.027313232	
1740735012307	-0.018539429	
1740735012308	-0.004119873	
1740735012309	-0.0018310547	
1740735012310	0.0050354004	
1740735012311	0.009384155	
1740735012312	0.009841919	
1740735012313	0.012359619	
1740735012314	0.012969971	
1740735012315	0.024261475	
1740735012316	0.02029419	
1740735012317	0.0047302246	
1740735012318	-0.004119873	
1740735012319	-0.005264282	
1740735012320	0.0075531006	
1740735012321	-0.0020599365	
1740735012322	-0.014343262	
1740735012323	0.006713867	
1740735012324	0.01838684	
1740735012325	-0.0029754639	
1740735012326	-0.016784668	
1740735012327	-0.006942749	
1740735012328	-0.029678345	
1740735012329	-0.047225952	
1740735012330	-0.01083374	
1740735012331	-0.0038909912	
1740735012332	-0.0010681152	
1740735012333	0.021743774	
1740735012334	0.028457642	
1740735012335	0.041427612	
1740735012336	0.02281189	
1740735012337	-0.016708374	
1740735012338	-0.021514893	
1740735012339	-0.019302368	
1740735012340	4.5776367E-4	
1740735012341	0.048828125	
1740735012342	0.042648315	
1740735012343	0.004119873	
1740735012344	0.0011444092	
1740735012345	0.0011444092	
1740735012346	0.0038909912	
1740735012347	0.0018310547	
1740735012348	-0.004196167	
1740735012349	-0.009765625	
1740735012350	-0.018539429	
1740735012351	-0.016174316	
1740735012352	-0.028076172	
1740735012353	-0.03501892	
1740735012354	-0.024871826	
1740735012355	-0.015640259	
1740735012356	0.0012207031	
1740735012357	0.005493164	
1740735012358	0.00289917	
1740735012359	0.0074005127	
1740735012360	9.1552734E-4	
1740735012361	0.0017547607	
1740735012362	0.010986328	
1740735012363	0.008392334	
1740735012364	0.0060272217	
1740735012365	0.0035095215	
1740735012366	0.0035095215	
1740735012367	0.01373291	
1740735012368	0.018692017	
1740735012369	0.0061035156	
1740735012370	-0.0051116943	
1740735012371	9.1552734E-4	
1740735012372	0.015640259	
1740735012373	0.0019836426	
1740735012374	-0.025558472	
1740735012375	-0.024032593	
1740735012376	-0.008010864	
1740735012377	0.007247925	
1740735012378	0.0019836426	
1740735012379	-0.0066375732	
1740735012380	-2.2888184E-4	
1740735012381	-0.0025939941	
1740735012382	0.0030517578	
1740735012383	0.007095337	
1740735012384	0.0021362305	
1740735012385	0.017318726	
1740735012386	0.025177002	
1740735012387	0.011749268	
1740735012388	-5.340576E-4	
1740735012389	-0.01411438	
1740735012390	-0.018615723	
1740735012391	0.0	
1740735012392	0.020446777	
1740735012393	0.020599365	
1740735012394	0.004425049	
1740735012395	-0.018310547	
1740735012396	-0.04310608	
1740735012397	-0.04043579	
1740735012398	-0.001449585	
1740735012399	0.014343262	
1740735012400	0.0020599365	
1740735012401	-0.001449585	
1740735012402	0.01083374	
1740735012403	0.017471313	
1740735012404	0.0060272217	
1740735012405	0.009918213	
1740735012406	0.0031280518	
1740735012407	-0.016021729	
1740735012408	-0.013656616	
1740735012409	-0.020599365	
1740735012410	-0.017929077	
1740735012411	0.0050354004	
1740735012412	0.017852783	
1740735012413	0.018539429	
1740735012414	0.012207031	
1740735012415	6.866455E-4	
1740735012416	-7.6293945E-5	
1740735012417	0.0037384033	
1740735012418	8.392334E-4	
1740735012419	0.007858276	
1740735012420	0.008087158	
1740735012421	-6.1035156E-4	
1740735012422	-0.012207031	
1740735012423	-0.01739502	
1740735012424	-7.6293945E-5	
1740735012425	-0.0011444092	
1740735012426	-0.010299683	
1740735012427	-0.003967285	
1740735012428	0.004425049	
1740735012429	0.0132751465	
1740735012430	0.009536743	
1740735012431	0.0012207031	
1740735012432	-0.018157959	
1740735012433	-0.02128601	
1740735012434	-0.004043579	
1740735012435	-9.918213E-4	
1740735012436	0.009918213	
1740735012437	0.015716553	
1740735012438	0.005264282	
1740735012439	-0.0025177002	
1740735012440	9.1552734E-4	
1740735012441	0.010910034	
1740735012442	0.0062561035	
1740735012443	0.0031280518	
1740735012444	0.010375977	
1740735012445	0.01411438	
1740735012446	0.0073242188	
1740735012447	-0.008926392	
1740735012448	-0.014266968	
1740735012449	-0.011978149	
1740735012450	-0.011367798	
1740735012451	-0.017700195	
1740735012452	-0.010147095	
1740735012453	0.023345947	
1740735012454	0.018463135	
1740735012455	-0.0076293945	
1740735012456	-0.009613037	
1740735012457	-0.01991272	
1740735012458	-0.020599365	
1740735012459	-0.01083374	
1740735012460	0.0019073486	
1740735012461	0.022506714	
1740735012462	0.026931763	
1740735012463	0.01373291	
1740735012464	-0.009307861	
1740735012465	-0.024490356	
1740735012466	-0.014877319	
1740735012467	0.014343262	
1740735012468	0.026931763	
1740735012469	0.026168823	
1740735012470	0.020141602	
1740735012471	-0.009002686	
1740735012472	-0.031814575	
1740735012473	-0.033111572	
1740735012474	-0.013885498	
1740735012475	0.009231567	
1740735012476	0.0104522705	
1740735012477	0.0061798096	
1740735012478	0.002670288	
1740735012479	0.0061798096	
1740735012480	0.02067566	
1740735012481	0.016860962	
1740735012482	-0.001373291	
1740735012483	-0.016937256	
1740735012484	-0.03616333	
1740735012485	-0.028915405	
1740735012486	-0.001373291	
1740735012487	0.010299683	
1740735012488	0.018463135	
1740735012489	0.014572144	
1740735012490	0.0074005127	
1740735012491	0.0118255615	
1740735012492	0.004272461	
1740735012493	-0.0030517578	
1740735012494	0.0012969971	
1740735012495	-0.0035095215	
1740735012496	-0.014953613	
1740735012497	-0.010147095	
1740735012498	0.00579834	
1740735012499	0.018310547	
1740735012500	0.007019043	
1740735012501	-0.0051879883	
1740735012502	-0.005340576	
1740735012503	-0.0074768066	
1740735012504	9.918213E-4	
1740735012505	-0.013427734	
1740735012506	-0.017089844	
1740735012507	0.005340576	
1740735012508	-0.002670288	
1740735012509	0.0037384033	
1740735012510	0.012664795	
1740735012511	-0.0074005127	
1740735012512	-0.020904541	
1740735012513	-0.017852783	
1740735012514	0.005569458	
1740735012515	0.02319336	
1740735012516	0.021133423	
1740735012517	0.00289917	
1740735012518	-0.014190674	
1740735012519	-0.007171631	
1740735012520	0.0046539307	
1740735012521	0.014572144	
1740735012522	0.018539429	
1740735012523	0.02067566	
1740735012524	0.022583008	
1740735012525	-0.0061798096	
1740735012526	-0.032348633	
1740735012527	-0.02128601	
1740735012528	-0.015716553	
1740735012529	-0.013198853	
1740735012530	0.0090789795	
1740735012531	0.013046265	
1740735012532	0.009918213	
1740735012533	0.012435913	
1740735012534	0.0047302246	
1740735012535	0.009841919	
1740735012536	-0.0015258789	
1740735012537	-0.03288269	
1740735012538	-0.033340454	
1740735012539	-0.012435913	
1740735012540	-0.004272461	
1740735012541	-0.0011444092	
1740735012542	0.012435913	
1740735012543	0.01083374	
1740735012544	0.010986328	
1740735012545	0.018539429	
1740735012546	0.0063323975	
1740735012547	-0.0032043457	
1740735012548	-2.2888184E-4	
1740735012549	0.0062561035	
1740735012550	0.010528564	
1740735012551	0.002822876	
1740735012552	-0.0038146973	
1740735012553	0.0012207031	
1740735012554	0.0018310547	
1740735012555	-0.008392334	
1740735012556	-0.010910034	
1740735012557	-0.0048065186	
1740735012558	-0.002822876	
1740735012559	-0.004119873	
1740735012560	-0.009384155	
1740735012561	-0.006866455	
1740735012562	3.0517578E-4	
1740735012563	0.0051116943	
1740735012564	0.008621216	
1740735012565	0.005569458	
1740735012566	0.008010864	
1740735012567	-0.002746582	
1740735012568	-0.009994507	
1740735012569	0.002670288	
1740735012570	0.0025939941	
1740735012571	0.0031280518	
1740735012572	-0.0031280518	
1740735012573	-0.01701355	
1740735012574	-0.0032043457	
1740735012575	0.014953613	
1740735012576	0.010299683	
1740735012577	0.0051116943	
1740735012578	-0.00541687	
1740735012579	-0.01625061	
1740735012580	0.0030517578	
1740735012581	0.015258789	
1740735012582	0.0051879883	
1740735012583	0.002746582	
1740735012584	-0.0049591064	
1740735012585	-0.016555786	
1740735012586	-0.0073242188	
1740735012587	0.0063323975	
1740735012588	0.0076293945	
1740735012589	0.0017547607	
1740735012590	-0.0036621094	
1740735012591	0.0032043457	
1740735012592	0.006790161	
1740735012593	0.00289917	
1740735012594	0.007247925	
1740735012595	0.00579834	
1740735012596	0.001449585	
1740735012597	-0.0021362305	
1740735012598	-0.015411377	
1740735012599	-0.02532959	
1740735012600	-0.012512207	
1740735012601	0.0051116943	
1740735012602	0.009765625	
1740735012603	0.009460449	
1740735012604	-0.0065612793	
1740735012605	-0.018234253	
1740735012606	-0.006790161	
1740735012607	0.008468628	
1740735012608	0.015029907	
1740735012609	0.01121521	
1740735012610	0.0035858154	
1740735012611	-0.005569458	
1740735012612	0.010910034	
1740735012613	0.026245117	
1740735012614	0.0024414062	
1740735012615	-0.017929077	
1740735012616	-0.028915405	
1740735012617	-0.011672974	
1740735012618	0.020446777	
1740735012619	0.019302368	
1740735012620	0.002822876	
1740735012621	-0.022964478	
1740735012622	-0.03036499	
1740735012623	-0.0060272217	
1740735012624	0.019607544	
1740735012625	0.02319336	
1740735012626	0.0012969971	
1740735012627	-0.008850098	
1740735012628	-0.004196167	
1740735012629	0.003967285	
1740735012630	0.013885498	
1740735012631	0.0090789795	
1740735012632	0.0073242188	
1740735012633	0.005645752	
1740735012634	-0.0075531006	
1740735012635	-0.008087158	
1740735012636	-0.007095337	
1740735012637	-0.006790161	
1740735012638	-0.008926392	
1740735012639	-0.010299683	
1740735012640	0.0051879883	
1740735012641	0.009002686	
1740735012642	0.004043579	
1740735012643	-1.5258789E-4	
1740735012644	-0.0077819824	
1740735012645	-0.00579834	
1740735012646	-0.0019836426	
1740735012647	0.0033569336	
1740735012648	0.00541687	
1740735012649	0.0	
1740735012650	0.0020599365	
1740735012651	-0.0022888184	
1740735012652	-0.012130737	
1740735012653	-0.004272461	
1740735012654	0.002822876	
1740735012655	7.6293945E-4	
1740735012656	0.00541687	
1740735012657	0.0012207031	
1740735012658	-0.00289917	
1740735012659	0.0021362305	
1740735012660	0.0015258789	
1740735012661	0.0076293945	
1740735012662	0.010375977	
1740735012663	0.010147095	
1740735012664	0.001373291	
1740735012665	-0.012893677	
1740735012666	-0.004043579	
1740735012667	-0.0012969971	
1740735012668	-0.0035095215	
1740735012669	-6.866455E-4	
1740735012670	-3.0517578E-4	
1740735012671	0.00793457	
1740735012672	0.0016021729	
1740735012673	-0.004119873	
1740735012674	8.392334E-4	
1740735012675	-0.0029754639	
1740735012676	7.6293945E-4	
1740735012677	7.6293945E-4	
1740735012678	-0.0051879883	
1740735012679	-0.0032806396	
1740735012680	-0.002670288	
1740735012681	0.0	
1740735012682	-3.8146973E-4	
1740735012683	-0.0016784668	
1740735012684	-0.0012969971	
1740735012685	-0.0012969971	
1740735012686	0.007095337	
1740735012687	0.008544922	
1740735012688	-0.001449585	
1740735012689	-0.005645752	
1740735012690	-0.00579834	
1740735012691	-0.013961792	
1740735012692	-0.005493164	
1740735012693	0.013885498	
1740735012694	0.0025939941	
1740735012695	-0.0024414062	
1740735012696	0.012588501	
1740735012697	0.013504028	
1740735012698	0.008239746	
1740735012699	7.6293945E-4	
1740735012700	-0.0051116943	
1740735012701	-0.0035095215	
1740735012702	-0.008850098	
1740735012703	-0.004043579	
1740735012704	0.017166138	
1740735012705	0.02029419	
1740735012706	0.017700195	
1740735012707	-0.0051116943	
1740735012708	-0.053634644	
1740735012709	-0.04585266	
1740735012710	-0.004501343	
1740735012711	0.0051879883	
1740735012712	0.014190674	
1740735012713	0.011749268	
1740735012714	-0.004272461	
1740735012715	-0.004043579	
1740735012716	0.0061035156	
1740735012717	0.01991272	
1740735012718	0.014419556	
1740735012719	0.0012207031	
1740735012720	0.003967285	
1740735012721	0.0025939941	
1740735012722	-0.0012969971	
1740735012723	-0.005264282	
1740735012724	-0.008163452	
1740735012725	0.0016784668	
1740735012726	0.0021362305	
1740735012727	-0.005493164	
1740735012728	-0.0022888184	
1740735012729	-0.00289917	
1740735012730	-9.918213E-4	
1740735012731	0.002822876	
1740735012732	0.008468628	
1740735012733	0.021133423	
1740735012734	0.007171631	
1740735012735	-0.015258789	
1740735012736	-0.020065308	
1740735012737	-0.018005371	
1740735012738	-0.0012969971	
1740735012739	-0.005874634	
1740735012740	-0.013809204	
1740735012741	0.015106201	
1740735012742	0.012741089	
1740735012743	-0.004425049	
1740735012744	0.0061035156	
1740735012745	0.0064086914	
1740735012746	6.1035156E-4	
1740735012747	-0.0037384033	
1740735012748	-0.004425049	
1740735012749	0.0012969971	
1740735012750	0.007019043	
1740735012751	0.02128601	
1740735012752	0.027618408	
1740735012753	0.0033569336	
1740735012754	-0.01411438	
1740735012755	-0.0074768066	
1740735012756	-0.021057129	
1740735012757	-0.03616333	
1740735012758	-0.008850098	
1740735012759	0.01701355	
1740735012760	0.01083374	
1740735012761	-4.5776367E-4	
1740735012762	-0.009918213	
1740735012763	-0.004119873	
1740735012764	0.005569458	
1740735012765	-0.0048065186	
1740735012766	-0.0050354004	
1740735012767	0.0037384033	
1740735012768	0.0075531006	
1740735012769	0.010147095	
1740735012770	0.006866455	
1740735012771	0.006866455	
1740735012772	0.0066375732	
1740735012773	0.0034332275	
1740735012774	0.0012207031	
1740735012775	6.1035156E-4	
1740735012776	-0.0021362305	
1740735012777	-0.009613037	
1740735012778	-0.0034332275	
1740735012779	0.004196167	
1740735012780	0.0023651123	
1740735012781	0.0018310547	
1740735012782	0.004196167	
1740735012783	0.007019043	
1740735012784	0.0037384033	
1740735012785	2.2888184E-4	
1740735012786	-0.008773804	
1740735012787	-0.02204895	
1740735012788	-0.02571106	
1740735012789	-0.023040771	
1740735012790	-0.0022888184	
1740735012791	0.01663208	
1740735012792	0.007171631	
1740735012793	-0.003967285	
1740735012794	-0.008773804	
1740735012795	0.0035858154	
1740735012796	0.015716553	
1740735012797	1.5258789E-4	
1740735012798	-0.0019836426	
1740735012799	0.009307861	
1740735012800	0.0062561035	
1740735012801	0.007247925	
1740735012802	0.015106201	
1740735012803	0.0119018555	
1740735012804	0.0029754639	
1740735012805	0.0025177002	
1740735012806	-3.0517578E-4	
1740735012807	-0.0047302246	
1740735012808	-3.0517578E-4	
1740735012809	-0.0062561035	
1740735012810	-0.008239746	
1740735012811	-2.2888184E-4	
1740735012812	-0.0033569336	
1740735012813	-0.0015258789	
1740735012814	-6.1035156E-4	
1740735012815	-4.5776367E-4	
1740735012816	-0.001373291	
1740735012817	-0.0074768066	
1740735012818	-0.0012969971	
1740735012819	-0.0020599365	
1740735012820	-3.0517578E-4	
1740735012821	0.006942749	
1740735012822	-0.0038146973	
1740735012823	-0.0073242188	
1740735012824	0.0012207031	
1740735012825	0.011749268	
1740735012826	0.0075531006	
1740735012827	-0.007247925	
1740735012828	-0.0066375732	
1740735012829	-0.00579834	
1740735012830	-0.0038146973	
1740735012831	0.0015258789	
1740735012832	6.866455E-4	
1740735012833	9.918213E-4	
1740735012834	-0.0016784668	
1740735012835	-0.0031280518	
1740735012836	0.0022888184	
1740735012837	0.0	
1740735012838	-7.6293945E-5	
1740735012839	0.008392334	
1740735012840	0.002670288	
1740735012841	-0.0018310547	
1740735012842	0.004043579	
1740735012843	0.0025939941	
1740735012844	3.8146973E-4	
1740735012845	-0.0051116943	
1740735012846	-0.0035858154	
1740735012847	0.0064086914	
1740735012848	0.0048065186	
1740735012849	-0.0061798096	
1740735012850	-0.01449585	
1740735012851	-0.0010681152	
1740735012852	0.004425049	
1740735012853	0.0018310547	
1740735012854	0.020065308	
1740735012855	0.017547607	
1740735012856	3.8146973E-4	
1740735012857	-0.010757446	
1740735012858	-0.01739502	
1740735012859	-0.006942749	
1740735012860	0.0019073486	
1740735012861	0.0050354004	
1740735012862	0.0023651123	
1740735012863	-0.002822876	
1740735012864	4.5776367E-4	
1740735012865	-0.0011444092	
1740735012866	0.013656616	
1740735012867	0.029449463	
1740735012868	0.007095337	
1740735012869	-0.021972656	
1740735012870	-0.029525757	
1740735012871	-0.018081665	
1740735012872	-0.010986328	
1740735012873	0.0011444092	
1740735012874	0.010299683	
1740735012875	-0.010299683	
1740735012876	-0.015106201	
1740735012877	-0.0030517578	
1740735012878	0.008468628	
1740735012879	0.025558472	
1740735012880	0.026473999	
1740735012881	0.010681152	
1740735012882	-0.013580322	
1740735012883	-0.028686523	
1740735012884	-0.015640259	
1740735012885	0.0104522705	
1740735012886	0.015792847	
1740735012887	0.001449585	
1740735012888	5.340576E-4	
1740735012889	0.007019043	
1740735012890	0.011978149	
1740735012891	0.01335144	
1740735012892	0.0	
1740735012893	-6.866455E-4	
1740735012894	7.6293945E-4	
1740735012895	-0.009307861	
1740735012896	-0.0031280518	
1740735012897	0.009841919	
1740735012898	0.01953125	
1740735012899	0.0066375732	
1740735012900	-0.026397705	
1740735012901	-0.03540039	
1740735012902	-0.018157959	
1740735012903	0.012207031	
1740735012904	0.028533936	
1740735012905	0.0118255615	
1740735012906	-0.018234253	
1740735012907	-0.047302246	
1740735012908	-0.03692627	
1740735012909	-0.0012969971	
1740735012910	0.012435913	
1740735012911	0.020217896	
1740735012912	0.018310547	
1740735012913	0.010910034	
1740735012914	0.009460449	
1740735012915	0.0037384033	
1740735012916	0.003967285	
1740735012917	0.008087158	
1740735012918	0.008621216	
1740735012919	0.002670288	
1740735012920	6.1035156E-4	
1740735012921	0.0051116943	
1740735012922	0.001373291	
1740735012923	-9.1552734E-4	
1740735012924	-6.866455E-4	
1740735012925	-0.0031280518	
1740735012926	8.392334E-4	
1740735012927	-0.005340576	
1740735012928	-0.00831604	
1740735012929	0.0049591064	
1740735012930	6.1035156E-4	
1740735012931	-0.0019836426	
1740735012932	0.004348755	
1740735012933	-6.866455E-4	
1740735012934	9.1552734E-4	
1740735012935	-0.008087158	
1740735012936	-0.024261475	
1740735012937	-0.02067566	
1740735012938	-0.005264282	
1740735012939	0.014419556	
1740735012940	0.010757446	
1740735012941	0.0034332275	
1740735012942	0.009460449	
1740735012943	3.8146973E-4	
1740735012944	0.005722046	
1740735012945	0.02029419	
1740735012946	0.01701355	
1740735012947	0.007095337	
1740735012948	-0.008468628	
1740735012949	-0.02670288	
1740735012950	-0.038146973	
1740735012951	-0.028381348	
1740735012952	-0.01083374	
1740735012953	-0.0031280518	
1740735012954	-0.0022125244	
1740735012955	0.005722046	
1740735012956	0.007858276	
1740735012957	0.006713867	
1740735012958	0.026626587	
1740735012959	0.029830933	
1740735012960	0.017166138	
1740735012961	0.0047302246	
1740735012962	-0.0047302246	
1740735012963	-0.0019073486	
1740735012964	-0.0064086914	
1740735012965	0.002670288	
1740735012966	0.009002686	
1740735012967	0.0	
1740735012968	9.1552734E-4	
1740735012969	-0.003967285	
1740735012970	-0.0046539307	
1740735012971	-3.8146973E-4	
1740735012972	0.0017547607	
1740735012973	0.0029754639	
1740735012974	-0.007858276	
1740735012975	-0.004272461	
1740735012976	0.0016021729	
1740735012977	-0.006713867	
1740735012978	-0.0025939941	
1740735012979	-0.0017547607	
1740735012980	-6.1035156E-4	
1740735012981	0.0077056885	
1740735012982	0.0020599365	
1740735012983	-0.004119873	
1740735012984	-0.01373291	
1740735012985	-0.032196045	
1740735012986	-0.021133423	
1740735012987	0.0024414062	
1740735012988	0.004501343	
1740735012989	0.015792847	
1740735012990	0.024261475	
1740735012991	0.018615723	
1740735012992	0.013046265	
1740735012993	-0.0047302246	
1740735012994	-0.015792847	
1740735012995	-0.009384155	
1740735012996	-0.0045776367	
1740735012997	-0.0029754639	
1740735012998	1.5258789E-4	
1740735012999	0.004425049	
1740735013000	0.014038086	
1740735013001	0.007858276	
1740735013002	-0.006713867	
1740735013003	0.0016784668	
1740735013004	0.004425049	
1740735013005	0.0020599365	
1740735013006	0.008621216	
1740735013007	0.002670288	
1740735013008	-0.001373291	
1740735013009	-9.918213E-4	
1740735013010	-0.0065612793	
1740735013011	-0.007247925	
1740735013012	-0.010070801	
1740735013013	-0.017242432	
1740735013014	-0.009155273	
1740735013015	0.0048065186	
1740735013016	0.0023651123	
1740735013017	0.004043579	
1740735013018	0.014038086	
1740735013019	0.013427734	
1740735013020	0.00831604	
1740735013021	-0.0031280518	
1740735013022	-0.00831604	
1740735013023	0.0033569336	
1740735013024	0.009231567	
1740735013025	0.011749268	
1740735013026	0.005722046	
1740735013027	-0.009918213	
1740735013028	-0.012207031	
1740735013029	-0.024871826	
1740735013030	-0.037384033	
1740735013031	-0.0060272217	
1740735013032	0.022506714	
1740735013033	0.014190674	
1740735013034	0.0032043457	
1740735013035	0.008239746	
1740735013036	0.023422241	
1740735013037	0.022354126	
1740735013038	0.0048828125	
1740735013039	-0.020217896	
1740735013040	-0.041427612	
1740735013041	-0.025405884	
1740735013042	-0.0017547607	
1740735013043	0.004043579	
1740735013044	0.014877319	
1740735013045	0.014343262	
1740735013046	8.392334E-4	
1740735013047	-0.0019073486	
1740735013048	0.0037384033	
1740735013049	0.009307861	
1740735013050	0.011978149	
1740735013051	0.009460449	
1740735013052	0.0016784668	
1740735013053	0.0030517578	
1740735013054	0.0021362305	
1740735013055	-0.010070801	
1740735013056	-0.010223389	
1740735013057	0.0019836426	
1740735013058	0.012207031	
1740735013059	0.004043579	
1740735013060	-0.008773804	
1740735013061	-0.0045776367	
1740735013062	-0.004425049	
1740735013063	-0.004348755	
1740735013064	-0.00289917	
1740735013065	-0.022201538	
1740735013066	-0.026626587	
1740735013067	-0.013504028	
1740735013068	-0.0104522705	
1740735013069	0.008468628	
1740735013070	0.022201538	
1740735013071	0.02746582	
1740735013072	0.030517578	
1740735013073	0.0034332275	
1740735013074	-0.01739502	
1740735013075	-0.016021729	
1740735013076	-0.0029754639	
1740735013077	0.005645752	
1740735013078	0.004348755	
1740735013079	0.005340576	
1740735013080	0.004196167	
1740735013081	0.004425049	
1740735013082	-0.0012969971	
1740735013083	9.1552734E-4	
1740735013084	0.0065612793	
1740735013085	-4.5776367E-4	
1740735013086	-0.0012207031	
1740735013087	0.0016021729	
1740735013088	9.1552734E-4	
1740735013089	-0.0030517578	
1740735013090	0.00289917	
1740735013091	0.01083374	
1740735013092	0.0020599365	
1740735013093	-0.0061798096	
1740735013094	-0.011444092	
1740735013095	-0.019760132	
1740735013096	-0.022201538	
1740735013097	-0.01335144	
1740735013098	0.0035858154	
1740735013099	0.014877319	
1740735013100	0.023422241	
1740735013101	0.030212402	
1740735013102	0.013046265	
1740735013103	-0.016326904	
1740735013104	-0.02960205	
1740735013105	-0.019607544	
1740735013106	-0.0038146973	
1740735013107	0.0034332275	
1740735013108	0.009460449	
1740735013109	0.0074768066	
1740735013110	-0.0020599365	
1740735013111	-0.006866455	
1740735013112	-0.0034332275	
1740735013113	-7.6293945E-5	
1740735013114	0.0021362305	
1740735013115	0.0073242188	
1740735013116	0.0046539307	
1740735013117	-3.8146973E-4	
1740735013118	-3.0517578E-4	
1740735013119	0.001449585	
1740735013120	0.0051116943	
1740735013121	0.004272461	
1740735013122	3.0517578E-4	
1740735013123	0.0022125244	
1740735013124	3.8146973E-4	
1740735013125	-0.0048065186	
1740735013126	0.001373291	
1740735013127	7.6293945E-5	
1740735013128	-0.0022888184	
1740735013129	6.866455E-4	
1740735013130	-0.0048065186	
1740735013131	-7.6293945E-5	
1740735013132	6.1035156E-4	
1740735013133	-0.003967285	
1740735013134	7.6293945E-4	
1740735013135	-0.0010681152	
1740735013136	4.5776367E-4	
1740735013137	8.392334E-4	
1740735013138	-0.0020599365	
1740735013139	0.0025939941	
1740735013140	0.0011444092	
1740735013141	0.00289917	
1740735013142	0.007171631	
1740735013143	-6.866455E-4	
1740735013144	-0.0025939941	
1740735013145	0.0032806396	
1740735013146	0.0037384033	
1740735013147	3.8146973E-4	
1740735013148	-0.002746582	
1740735013149	-0.0074768066	
1740735013150	-0.00869751	
1740735013151	0.0025177002	
1740735013152	0.0010681152	
1740735013153	-0.0035095215	
1740735013154	0.0048065186	
1740735013155	-0.00289917	
1740735013156	-0.0063323975	
1740735013157	-0.0012969971	
1740735013158	-0.004425049	
1740735013159	-0.0010681152	
1740735013160	-0.0038909912	
1740735013161	-0.0048065186	
1740735013162	0.018539429	
1740735013163	0.033950806	
1740735013164	0.023956299	
1740735013165	-0.007171631	
1740735013166	-0.04257202	
1740735013167	-0.027008057	
1740735013168	0.005340576	
1740735013169	0.0073242188	
1740735013170	0.005340576	
1740735013171	-0.005645752	
1740735013172	-0.002670288	
1740735013173	0.0030517578	
1740735013174	-0.013885498	
1740735013175	-0.016021729	
1740735013176	7.6293945E-5	
1740735013177	0.016403198	
1740735013178	0.010299683	
1740735013179	0.0022888184	
1740735013180	0.010147095	
1740735013181	0.0074005127	
1740735013182	0.010299683	
1740735013183	0.0118255615	
1740735013184	0.0010681152	
1740735013185	0.0030517578	
1740735013186	0.0022888184	
1740735013187	-0.0010681152	
1740735013188	0.0035095215	
1740735013189	0.0022888184	
1740735013190	-0.0020599365	
1740735013191	-0.009155273	
1740735013192	-0.012207031	
1740735013193	-0.005645752	
1740735013194	-0.004196167	
1740735013195	-0.0017547607	
1740735013196	8.392334E-4	
1740735013197	-0.0035858154	
1740735013198	-0.0033569336	
1740735013199	-0.0015258789	
1740735013200	-0.0038146973	
1740735013201	-0.0060272217	
1740735013202	-0.0012207031	
1740735013203	-0.0020599365	
1740735013204	-0.0049591064	
1740735013205	9.1552734E-4	
1740735013206	-0.0031280518	
1740735013207	-0.0034332275	
1740735013208	0.0033569336	
1740735013209	-2.2888184E-4	
1740735013210	-0.0011444092	
1740735013211	0.004348755	
1740735013212	0.0035095215	
1740735013213	0.0016784668	
1740735013214	0.0048828125	
1740735013215	0.0035858154	
1740735013216	0.0032043457	
1740735013217	0.0023651123	
1740735013218	-5.340576E-4	
1740735013219	3.0517578E-4	
1740735013220	0.002670288	
1740735013221	0.0046539307	
1740735013222	0.0033569336	
1740735013223	0.0022125244	
1740735013224	0.0064086914	
1740735013225	0.0074768066	
1740735013226	-0.0012969971	
1740735013227	-0.0048828125	
1740735013228	-0.0016021729	
1740735013229	-0.0038909912	
1740735013230	-0.0032043457	
1740735013231	-0.001449585	
1740735013232	-2.2888184E-4	
1740735013233	7.6293945E-4	
1740735013234	-0.004425049	
1740735013235	-0.0059509277	
1740735013236	-0.0031280518	
1740735013237	-0.0019836426	
1740735013238	-0.0036621094	
1740735013239	1.5258789E-4	
1740735013240	0.0045776367	
1740735013241	2.2888184E-4	
1740735013242	-0.0010681152	
1740735013243	-0.002822876	
1740735013244	-9.918213E-4	
1740735013245	0.003967285	
1740735013246	-8.392334E-4	
1740735013247	-0.0011444092	
1740735013248	0.0023651123	
1740735013249	-5.340576E-4	
1740735013250	0.0015258789	
1740735013251	0.0050354004	
1740735013252	0.004196167	
1740735013253	0.0025939941	
1740735013254	0.00289917	
1740735013255	0.003967285	
1740735013256	-0.0037384033	
1740735013257	-0.0060272217	
1740735013258	-9.918213E-4	
1740735013259	-0.0032043457	
1740735013260	-0.0037384033	
1740735013261	-0.0033569336	
1740735013262	-4.5776367E-4	
1740735013263	0.0029754639	
1740735013264	-0.00289917	
1740735013265	-0.0032806396	
1740735013266	-7.6293945E-4	
1740735013267	-0.0022125244	
1740735013268	3.0517578E-4	
1740735013269	0.0036621094	
1740735013270	0.007247925	
1740735013271	0.0060272217	
1740735013272	0.0019836426	
1740735013273	-0.001449585	
1740735013274	-9.1552734E-4	
1740735013275	0.0035858154	
1740735013276	0.0033569336	
1740735013277	0.0021362305	
1740735013278	-0.0046539307	
1740735013279	-0.011672974	
1740735013280	-0.0035858154	
1740735013281	0.007171631	
1740735013282	0.0118255615	
1740735013283	0.0012969971	
1740735013284	-0.01739502	
1740735013285	-0.027770996	
1740735013286	-0.019302368	
1740735013287	0.0034332275	
1740735013288	0.009307861	
1740735013289	0.008392334	
1740735013290	0.008010864	
1740735013291	3.0517578E-4	
1740735013292	0.0038146973	
1740735013293	0.0077819824	
1740735013294	0.0038146973	
1740735013295	0.008773804	
1740735013296	0.012512207	
1740735013297	0.00869751	
1740735013298	0.0048828125	
1740735013299	0.0077056885	
1740735013300	0.007171631	
1740735013301	-0.0020599365	
1740735013302	-0.004348755	
1740735013303	-0.0036621094	
1740735013304	-0.00289917	
1740735013305	-0.007095337	
1740735013306	-0.0074005127	
1740735013307	-0.0015258789	
1740735013308	-0.0024414062	
1740735013309	-0.001373291	
1740735013310	-0.0048828125	
1740735013311	-0.00869751	
1740735013312	-0.0025177002	
1740735013313	1.5258789E-4	
1740735013314	-0.0064086914	
1740735013315	-0.005569458	
1740735013316	-9.1552734E-4	
1740735013317	-0.004348755	
1740735013318	-0.0037384033	
1740735013319	-0.0034332275	
1740735013320	-2.2888184E-4	
1740735013321	7.6293945E-4	
1740735013322	-0.0064086914	
1740735013323	0.0	
1740735013324	0.0032806396	
1740735013325	0.0019073486	
1740735013326	0.0064086914	
1740735013327	0.0029754639	
1740735013328	0.0032043457	
1740735013329	0.005874634	
1740735013330	0.006790161	
1740735013331	0.0030517578	
1740735013332	6.1035156E-4	
1740735013333	0.008468628	
1740735013334	0.0063323975	
1740735013335	0.002670288	
1740735013336	0.006942749	
1740735013337	0.004272461	
1740735013338	-0.00289917	
1740735013339	-0.009689331	
1740735013340	-0.0012969971	
1740735013341	0.004425049	
1740735013342	-0.0047302246	
1740735013343	-0.001373291	
1740735013344	-0.0018310547	
1740735013345	-0.002822876	
1740735013346	0.0015258789	
1740735013347	-0.0046539307	
1740735013348	-0.0012207031	
1740735013349	0.0011444092	
1740735013350	-6.866455E-4	
1740735013351	0.0016784668	
1740735013352	-0.0066375732	
1740735013353	-0.0048065186	
1740735013354	6.866455E-4	
1740735013355	-0.008010864	
1740735013356	-0.0034332275	
1740735013357	-7.6293945E-4	
1740735013358	-0.001449585	
1740735013359	0.0048828125	
1740735013360	3.8146973E-4	
1740735013361	6.866455E-4	
1740735013362	0.006942749	
1740735013363	0.004196167	
1740735013364	0.002822876	
1740735013365	0.0064086914	
1740735013366	7.6293945E-4	
1740735013367	-0.005264282	
1740735013368	-8.392334E-4	
1740735013369	-0.0038146973	
1740735013370	-0.003967285	
1740735013371	-0.0012207031	
1740735013372	-0.002822876	
1740735013373	0.0029754639	
1740735013374	0.0012969971	
1740735013375	6.866455E-4	
1740735013376	0.0019073486	
1740735013377	-0.0024414062	
1740735013378	0.00289917	
1740735013379	0.0046539307	
1740735013380	-0.0022888184	
1740735013381	-0.0051116943	
1740735013382	-0.0012969971	
1740735013383	0.001449585	
1740735013384	7.6293945E-4	
1740735013385	0.005340576	
1740735013386	0.007095337	
1740735013387	0.001449585	
1740735013388	-7.6293945E-5	
1740735013389	0.0032043457	
1740735013390	0.0019073486	
1740735013391	-0.008392334	
1740735013392	-0.010147095	
1740735013393	-0.0019836426	
1740735013394	-0.0032806396	
1740735013395	-0.0032806396	
1740735013396	0.0032043457	
1740735013397	0.004196167	
1740735013398	-0.0016021729	
1740735013399	-0.0010681152	
1740735013400	0.005264282	
1740735013401	0.001373291	
1740735013402	-0.0020599365	
1740735013403	-3.8146973E-4	
1740735013404	-0.005493164	
1740735013405	-0.0051879883	
1740735013406	0.0022888184	
1740735013407	0.001449585	
1740735013408	0.0034332275	
1740735013409	0.0064849854	
1740735013410	0.0024414062	
1740735013411	0.0075531006	
1740735013412	0.015029907	
1740735013413	0.011138916	
1740735013414	0.004272461	
1740735013415	-0.005722046	
1740735013416	-0.012512207	
1740735013417	-0.009002686	
1740735013418	-0.00831604	
1740735013419	-0.008621216	
1740735013420	-0.0048065186	
1740735013421	-0.004348755	
1740735013422	-0.004425049	
1740735013423	-0.0061035156	
1740735013424	-9.918213E-4	
1740735013425	0.0035095215	
1740735013426	-8.392334E-4	
1740735013427	0.0016784668	
1740735013428	0.0063323975	
1740735013429	0.006790161	
1740735013430	0.005493164	
1740735013431	0.0032806396	
1740735013432	6.866455E-4	
1740735013433	0.0021362305	
1740735013434	0.002822876	
1740735013435	-6.1035156E-4	
1740735013436	0.0016021729	
1740735013437	0.0022888184	
1740735013438	-9.918213E-4	
1740735013439	-0.004272461	
1740735013440	-0.0051116943	
1740735013441	0.0020599365	
1740735013442	3.8146973E-4	
1740735013443	-0.00289917	
1740735013444	0.0031280518	
1740735013445	6.866455E-4	
1740735013446	-3.0517578E-4	
1740735013447	0.001373291	
1740735013448	0.0023651123	
1740735013449	0.002746582	
1740735013450	-0.004119873	
1740735013451	-0.0015258789	
1740735013452	0.0	
1740735013453	-0.0030517578	
1740735013454	-0.0012207031	
1740735013455	-0.006942749	
1740735013456	-0.003967285	
1740735013457	-7.6293945E-5	
1740735013458	-0.0010681152	
1740735013459	0.00541687	
1740735013460	0.0018310547	
1740735013461	-0.0023651123	
1740735013462	6.866455E-4	
1740735013463	0.0012207031	
1740735013464	0.0033569336	
1740735013465	-0.0018310547	
1740735013466	-7.6293945E-5	
1740735013467	0.005264282	
1740735013468	-0.0062561035	
1740735013469	-0.005874634	
1740735013470	0.0024414062	
1740735013471	0.006866455	
1740735013472	0.007171631	
1740735013473	0.0016784668	
1740735013474	0.004119873	
1740735013475	9.918213E-4	
1740735013476	-0.0016784668	
1740735013477	-3.0517578E-4	
1740735013478	-0.007095337	
1740735013479	3.8146973E-4	
1740735013480	0.004272461	
1740735013481	0.0018310547	
1740735013482	0.0059509277	
1740735013483	0.001449585	
1740735013484	-0.004348755	
1740735013485	-0.0048828125	
1740735013486	-0.004501343	
1740735013487	-0.005645752	
1740735013488	-0.0051116943	
1740735013489	-0.004196167	
1740735013490	-0.0019836426	
1740735013491	0.004425049	
1740735013492	0.011138916	
1740735013493	0.011138916	
1740735013494	0.004501343	
1740735013495	-3.8146973E-4	
1740735013496	-9.1552734E-4	
1740735013497	-0.0031280518	
1740735013498	-0.0076293945	
1740735013499	-0.013122559	
1740735013500	-0.011672974	
1740735013501	-0.0076293945	
1740735013502	-0.0061798096	
1740735013503	0.0015258789	
1740735013504	0.0051116943	
1740735013505	0.004348755	
1740735013506	0.0061798096	
1740735013507	0.007247925	
1740735013508	0.006942749	
1740735013509	0.008773804	
1740735013510	0.011520386	
1740735013511	0.002822876	
1740735013512	-0.004272461	
1740735013513	0.0012969971	
1740735013514	0.0032806396	
1740735013515	0.002822876	
1740735013516	0.0011444092	
1740735013517	-5.340576E-4	
1740735013518	-0.004196167	
1740735013519	-0.008850098	
1740735013520	-0.0022888184	
1740735013521	-0.0025939941	
1740735013522	-0.00541687	
1740735013523	6.1035156E-4	
1740735013524	0.0022125244	
1740735013525	0.0032806396	
1740735013526	-0.00289917	
1740735013527	-0.0016021729	
1740735013528	0.010986328	
1740735013529	0.0061035156	
1740735013530	-0.008850098	
1740735013531	-0.01449585	
1740735013532	-0.011520386	
1740735013533	-0.009918213	
1740735013534	-0.00541687	
1740735013535	0.0051116943	
1740735013536	0.011749268	
1740735013537	0.01373291	
1740735013538	0.0132751465	
1740735013539	0.0051116943	
1740735013540	0.0033569336	
1740735013541	0.0030517578	
1740735013542	-0.005569458	
1740735013543	-0.008544922	
1740735013544	-0.0076293945	
1740735013545	-0.009765625	
1740735013546	-0.008850098	
1740735013547	-6.866455E-4	
1740735013548	0.0018310547	
1740735013549	0.0048065186	
1740735013550	0.0051116943	
1740735013551	0.0046539307	
1740735013552	0.0051879883	
1740735013553	0.0023651123	
1740735013554	0.004425049	
1740735013555	-0.0017547607	
1740735013556	-0.004501343	
1740735013557	-7.6293945E-5	
1740735013558	0.0045776367	
1740735013559	0.0017547607	
1740735013560	-0.004272461	
1740735013561	-4.5776367E-4	
1740735013562	-0.005493164	
1740735013563	-0.0048065186	
1740735013564	0.005722046	
1740735013565	0.004196167	
1740735013566	0.006942749	
1740735013567	0.0064849854	
1740735013568	-6.866455E-4	
1740735013569	-0.0037384033	
1740735013570	-0.0034332275	
1740735013571	-0.0048828125	
1740735013572	-0.008926392	
1740735013573	-0.008621216	
1740735013574	7.6293945E-5	
1740735013575	0.0048828125	
1740735013576	0.004043579	
1740735013577	-0.0011444092	
1740735013578	-0.0104522705	
1740735013579	-0.0031280518	
1740735013580	0.004348755	
1740735013581	0.009460449	
1740735013582	0.02029419	
1740735013583	0.02029419	
1740735013584	0.017089844	
1740735013585	0.002670288	
1740735013586	-0.012130737	
1740735013587	-0.01739502	
1740735013588	-0.025482178	
1740735013589	-0.015640259	
1740735013590	-0.0029754639	
1740735013591	-0.0029754639	
1740735013592	0.005264282	
1740735013593	0.0018310547	
1740735013594	-3.0517578E-4	
1740735013595	0.0074005127	
1740735013596	0.0064086914	
1740735013597	0.0032043457	
1740735013598	0.0032043457	
1740735013599	-3.8146973E-4	
1740735013600	-0.0024414062	
1740735013601	-4.5776367E-4	
1740735013602	0.0023651123	
1740735013603	0.004043579	
1740735013604	-0.0016021729	
1740735013605	0.0019836426	
1740735013606	0.0022888184	
1740735013607	-0.0020599365	
1740735013608	0.0025177002	
1740735013609	6.1035156E-4	
1740735013610	-0.0012969971	
1740735013611	0.0011444092	
1740735013612	0.0011444092	
1740735013613	-0.0020599365	
1740735013614	-0.0012969971	
1740735013615	0.0012207031	
1740735013616	-0.0019073486	
1740735013617	-0.0038909912	
1740735013618	-0.0031280518	
1740735013619	6.1035156E-4	
1740735013620	5.340576E-4	
1740735013621	-0.0012969971	
1740735013622	-0.0016021729	
1740735013623	-0.0022125244	
1740735013624	-0.0024414062	
1740735013625	6.866455E-4	
1740735013626	0.002822876	
1740735013627	0.004348755	
1740735013628	0.0062561035	
1740735013629	-2.2888184E-4	
1740735013630	-0.00289917	
1740735013631	0.0015258789	
1740735013632	0.0016784668	
1740735013633	0.0061798096	
1740735013634	0.0073242188	
1740735013635	0.0034332275	
1740735013636	0.0017547607	
1740735013637	-0.0016021729	
1740735013638	-0.008163452	
1740735013639	-0.010604858	
1740735013640	-0.009994507	
1740735013641	-0.0025177002	
1740735013642	0.0046539307	
1740735013643	3.0517578E-4	
1740735013644	0.0	
1740735013645	-0.0017547607	
1740735013646	-0.006942749	
1740735013647	-0.0046539307	
1740735013648	0.0020599365	
1740735013649	0.0046539307	
1740735013650	0.0010681152	
1740735013651	3.0517578E-4	
1740735013652	-2.2888184E-4	
1740735013653	-0.0025177002	
1740735013654	0.004425049	
1740735013655	0.010986328	
1740735013656	0.008392334	
1740735013657	0.0074005127	
1740735013658	0.002822876	
1740735013659	8.392334E-4	
1740735013660	0.0021362305	
1740735013661	-0.003967285	
1740735013662	-0.005264282	
1740735013663	-0.0022888184	
1740735013664	-0.003967285	
1740735013665	-0.0010681152	
1740735013666	0.0061798096	
1740735013667	0.0010681152	
1740735013668	0.0016021729	
1740735013669	-6.866455E-4	
1740735013670	-0.0075531006	
1740735013671	-0.002822876	
1740735013672	-0.00289917	
1740735013673	-0.0037384033	
1740735013674	-0.0022125244	
1740735013675	3.0517578E-4	
1740735013676	-2.2888184E-4	
1740735013677	-0.002670288	
1740735013678	3.8146973E-4	
1740735013679	0.004425049	
1740735013680	0.0065612793	
1740735013681	0.0038146973	
1740735013682	-0.0016021729	
1740735013683	-0.0036621094	
1740735013684	0.001373291	
1740735013685	-0.003967285	
1740735013686	-0.004196167	
1740735013687	0.0033569336	
1740735013688	0.0024414062	
1740735013689	-0.0022888184	
1740735013690	-0.0062561035	
1740735013691	0.0	
1740735013692	0.006790161	
1740735013693	0.008926392	
1740735013694	0.010223389	
1740735013695	0.004043579	
1740735013696	7.6293945E-4	
1740735013697	-0.0015258789	
1740735013698	2.2888184E-4	
1740735013699	0.001449585	
1740735013700	-0.006942749	
1740735013701	-0.0075531006	
1740735013702	0.0010681152	
1740735013703	0.0038909912	
1740735013704	-0.0011444092	
1740735013705	6.866455E-4	
1740735013706	-0.0016021729	
1740735013707	-0.009155273	
1740735013708	-0.0076293945	
1740735013709	-0.005722046	
1740735013710	3.8146973E-4	
1740735013711	-7.6293945E-4	
1740735013712	-0.008621216	
1740735013713	-0.0046539307	
1740735013714	0.002670288	
1740735013715	0.010223389	
1740735013716	0.012207031	
1740735013717	0.016403198	
1740735013718	0.013046265	
1740735013719	-0.007019043	
1740735013720	-0.009307861	
1740735013721	0.0032806396	
1740735013722	0.0051116943	
1740735013723	-9.918213E-4	
1740735013724	-0.009460449	
1740735013725	9.918213E-4	
1740735013726	0.0075531006	
1740735013727	0.0022888184	
1740735013728	0.0049591064	
1740735013729	-0.0025177002	
1740735013730	-0.013122559	
1740735013731	-0.009155273	
1740735013732	0.0037384033	
1740735013733	0.005874634	
1740735013734	-0.0076293945	
1740735013735	-0.007019043	
1740735013736	-0.007858276	
1740735013737	-0.0073242188	
1740735013738	0.0024414062	
1740735013739	0.0012207031	
1740735013740	0.011444092	
1740735013741	0.013961792	
1740735013742	0.012893677	
1740735013743	0.011749268	
1740735013744	0.0020599365	
1740735013745	-0.0032806396	
1740735013746	-0.0118255615	
1740735013747	-0.021209717	
1740735013748	-0.006866455	
1740735013749	0.01777649	
1740735013750	0.025100708	
1740735013751	0.013885498	
1740735013752	0.00793457	
1740735013753	-0.0090789795	
1740735013754	-0.028839111	
1740735013755	-0.016860962	
1740735013756	-0.008239746	
1740735013757	-0.007095337	
1740735013758	0.012054443	
1740735013759	0.0074768066	
1740735013760	-0.004196167	
1740735013761	-0.009231567	
1740735013762	-0.013961792	
1740735013763	-0.007858276	
1740735013764	-0.006866455	
1740735013765	0.0033569336	
1740735013766	0.025787354	
1740735013767	0.02571106	
1740735013768	0.014190674	
1740735013769	-0.0048828125	
1740735013770	-0.010986328	
1740735013771	0.006942749	
1740735013772	0.006866455	
1740735013773	-0.0025939941	
1740735013774	0.0010681152	
1740735013775	0.010528564	
1740735013776	0.011062622	
1740735013777	0.009155273	
1740735013778	0.005569458	
1740735013779	-0.013198853	
1740735013780	-0.027236938	
1740735013781	-0.025100708	
1740735013782	-0.016403198	
1740735013783	-0.0076293945	
1740735013784	1.5258789E-4	
1740735013785	0.0073242188	
1740735013786	0.023880005	
1740735013787	0.036010742	
1740735013788	0.01625061	
1740735013789	-0.010910034	
1740735013790	-0.010681152	
1740735013791	-0.013809204	
1740735013792	-0.033798218	
1740735013793	-0.049209595	
1740735013794	-0.050582886	
1740735013795	-0.03326416	
1740735013796	-0.018157959	
1740735013797	0.014953613	
1740735013798	0.06263733	
1740735013799	0.06881714	
1740735013800	0.052871704	
1740735013801	0.03517151	
1740735013802	0.027618408	
1740735013803	0.02861023	
1740735013804	0.015411377	
1740735013805	0.0051879883	
1740735013806	-0.009689331	
1740735013807	-0.024719238	
1740735013808	-0.026016235	
1740735013809	-0.03753662	
1740735013810	-0.03189087	
1740735013811	-0.007019043	
1740735013812	0.0019836426	
1740735013813	0.007247925	
1740735013814	0.013961792	
1740735013815	-0.0045776367	
1740735013816	-0.018463135	
1740735013817	-0.005340576	
1740735013818	0.0064849854	
1740735013819	0.0049591064	
1740735013820	-0.0038909912	
1740735013821	-0.010910034	
1740735013822	-0.0022888184	
1740735013823	0.0015258789	
1740735013824	-0.0024414062	
1740735013825	0.0012969971	
1740735013826	0.0090789795	
1740735013827	1.5258789E-4	
1740735013828	-0.01586914	
1740735013829	-0.018310547	
1740735013830	-0.0036621094	
1740735013831	0.0077819824	
1740735013832	0.0033569336	
1740735013833	0.0024414062	
1740735013834	0.01838684	
1740735013835	0.023651123	
1740735013836	0.0090789795	
1740735013837	0.014343262	
1740735013838	0.004425049	
1740735013839	-0.026779175	
1740735013840	-0.03807068	
1740735013841	-0.024642944	
1740735013842	-0.0015258789	
1740735013843	0.0064086914	
1740735013844	0.008621216	
1740735013845	0.033416748	
1740735013846	0.057373047	
1740735013847	0.034713745	
1740735013848	-0.0064849854	
1740735013849	-0.027236938	
1740735013850	-0.02670288	
1740735013851	-4.5776367E-4	
1740735013852	0.009841919	
1740735013853	-4.5776367E-4	
1740735013854	-0.009231567	
1740735013855	-0.018157959	
1740735013856	-0.024261475	
1740735013857	-0.022659302	
1740735013858	-0.008621216	
1740735013859	1.5258789E-4	
1740735013860	0.0048828125	
1740735013861	0.013656616	
1740735013862	0.017547607	
1740735013863	0.024032593	
1740735013864	0.02746582	
1740735013865	0.015640259	
1740735013866	0.013198853	
1740735013867	0.0045776367	
1740735013868	-0.012893677	
1740735013869	-0.012893677	
1740735013870	-0.0119018555	
1740735013871	-0.0076293945	
1740735013872	-0.005645752	
1740735013873	-0.012283325	
1740735013874	-0.020523071	
1740735013875	-0.026321411	
1740735013876	-0.023269653	
1740735013877	-0.006790161	
1740735013878	0.015563965	
1740735013879	0.020370483	
1740735013880	0.026168823	
1740735013881	0.025100708	
1740735013882	0.0048828125	
1740735013883	0.0021362305	
1740735013884	-0.0075531006	
1740735013885	-0.012512207	
1740735013886	-0.015029907	
1740735013887	-0.01335144	
1740735013888	0.0018310547	
1740735013889	0.019226074	
1740735013890	0.024719238	
1740735013891	0.011520386	
1740735013892	0.01449585	
1740735013893	0.019073486	
1740735013894	7.6293945E-4	
1740735013895	-0.027694702	
1740735013896	-0.03074646	
1740735013897	-0.015182495	
1740735013898	0.0059509277	
1740735013899	0.0021362305	
1740735013900	-0.021438599	
1740735013901	-0.0048065186	
1740735013902	0.02243042	
1740735013903	0.016174316	
1740735013904	-0.0032043457	
1740735013905	-0.0012969971	
1740735013906	0.01663208	
1740735013907	0.022201538	
1740735013908	0.012512207	
1740735013909	-0.010681152	
1740735013910	-0.03189087	
1740735013911	-0.036010742	
1740735013912	-0.010910034	
1740735013913	0.015258789	
1740735013914	0.018463135	
1740735013915	0.029067993	
1740735013916	0.01739502	
1740735013917	-0.01876831	
1740735013918	-0.033798218	
1740735013919	-0.045013428	
1740735013920	-0.056610107	
1740735013921	0.007171631	
1740735013922	0.05607605	
1740735013923	0.015182495	
1740735013924	0.007095337	
1740735013925	0.015716553	
1740735013926	0.0019073486	
1740735013927	0.017623901	
1740735013928	0.042800903	
1740735013929	0.037460327	
1740735013930	0.02708435	
1740735013931	0.023803711	
1740735013932	-0.019073486	
1740735013933	-0.050582886	
1740735013934	-0.047912598	
1740735013935	-0.056381226	
1740735013936	-0.034484863	
1740735013937	0.028915405	
1740735013938	0.05935669	
1740735013939	0.027236938	
1740735013940	0.012130737	
1740735013941	-0.005874634	
1740735013942	-0.044937134	
1740735013943	-0.03074646	
1740735013944	0.0016021729	
1740735013945	0.03501892	
1740735013946	0.03929138	
1740735013947	-0.004119873	
1740735013948	-0.02822876	
1740735013949	-0.012893677	
1740735013950	0.0029754639	
1740735013951	-0.0073242188	
1740735013952	-0.01838684	
1740735013953	-0.009384155	
1740735013954	-0.0060272217	
1740735013955	0.00579834	
1740735013956	0.022888184	
1740735013957	0.020370483	
1740735013958	-0.009765625	
1740735013959	-0.039215088	
1740735013960	-0.028076172	
1740735013961	0.009689331	
1740735013962	0.012893677	
1740735013963	-0.01991272	
1740735013964	0.015487671	
1740735013965	0.053710938	
1740735013966	0.02532959	
1740735013967	-0.01701355	
1740735013968	-0.08506775	
1740735013969	-0.11894226	
1740735013970	-0.025634766	
1740735013971	0.11116028	
1740735013972	0.15281677	
1740735013973	0.14839172	
1740735013974	0.14205933	
1740735013975	0.031585693	
1740735013976	-0.06652832	
1740735013977	-0.07751465	
1740735013978	-0.09048462	
1740735013979	-0.05455017	
1740735013980	-0.023422241	
1740735013981	-0.039901733	
1740735013982	-0.04333496	
1740735013983	-0.019073486	
1740735013984	0.002822876	
1740735013985	0.019607544	
1740735013986	0.05203247	
1740735013987	-0.0019073486	
1740735013988	-0.11489868	
1740735013989	-0.09613037	
1740735013990	-0.036087036	
1740735013991	-0.07865906	
1740735013992	-0.057144165	
1740735013993	0.05050659	
1740735013994	0.080566406	
1740735013995	0.07865906	
1740735013996	0.14251709	
1740735013997	0.15022278	
1740735013998	0.09414673	
1740735013999	0.033111572	
1740735014000	-0.087890625	
1740735014001	-0.11795044	
1740735014002	-0.056762695	
1740735014003	0.0024414062	
1740735014004	0.0605011	
1740735014005	0.024642944	
1740735014006	-0.043792725	
1740735014007	-0.06248474	
1740735014008	-0.010375977	
1740735014009	0.056228638	
1740735014010	0.0894928	
1740735014011	0.14442444	
1740735014012	0.11917114	
1740735014013	0.01586914	
1740735014014	-0.0730896	
1740735014015	-0.14457703	
1740735014016	-0.16113281	
1740735014017	-0.16166687	
1740735014018	-0.128479	
1740735014019	-0.049819946	
1740735014020	-0.020751953	
1740735014021	0.009460449	
1740735014022	0.05973816	
1740735014023	0.084609985	
1740735014024	0.11306763	
1740735014025	0.0894928	
1740735014026	-5.340576E-4	
1740735014027	-0.056762695	
1740735014028	-0.061950684	
1740735014029	-0.025405884	
1740735014030	0.016098022	
1740735014031	-0.060272217	
1740735014032	-0.078811646	
1740735014033	0.02960205	
1740735014034	0.053482056	
1740735014035	0.059890747	
1740735014036	0.1084137	
1740735014037	0.17738342	
1740735014038	0.24421692	
1740735014039	0.16906738	
1740735014040	0.089645386	
1740735014041	0.057907104	
1740735014042	-0.10185242	
1740735014043	-0.15899658	
1740735014044	-0.11062622	
1740735014045	-0.11581421	
1740735014046	-0.048828125	
1740735014047	-0.0554657	
1740735014048	-0.17562866	
1740735014049	-0.1676178	
1740735014050	-0.09590149	
1740735014051	-0.05180359	
1740735014052	0.02960205	
1740735014053	0.07080078	
1740735014054	-0.0038146973	
1740735014055	-0.05836487	
1740735014056	-0.015258789	
1740735014057	0.00831604	
1740735014058	-0.0012969971	
1740735014059	-0.017318726	
1740735014060	0.013809204	
1740735014061	0.07469177	
1740735014062	0.08255005	
1740735014063	0.16235352	
1740735014064	0.18722534	
1740735014065	0.08430481	
1740735014066	0.020217896	
1740735014067	-0.05180359	
1740735014068	-0.09941101	
1740735014069	-0.0868988	
1740735014070	-0.059280396	
1740735014071	-0.006866455	
1740735014072	0.028839111	
1740735014073	-0.051879883	
1740735014074	-0.11680603	
1740735014075	2.2888184E-4	
1740735014076	0.069885254	
1740735014077	0.0440979	
1740735014078	0.009994507	
1740735014079	0.001449585	
1740735014080	0.07774353	
1740735014081	0.108947754	
1740735014082	0.14160156	
1740735014083	0.12779236	
1740735014084	-0.028533936	
1740735014085	-0.082473755	
1740735014086	-0.04295349	
1740735014087	-0.00579834	
1740735014088	0.014877319	
1740735014089	-0.004119873	
1740735014090	-0.016403198	
1740735014091	-0.06248474	
1740735014092	-0.039520264	
1740735014093	0.025177002	
1740735014094	-0.06317139	
1740735014095	-0.18104553	
1740735014096	-0.19874573	
1740735014097	-0.11772156	
1740735014098	-0.032424927	
1740735014099	-0.049591064	
1740735014100	0.0019836426	
1740735014101	0.03463745	
1740735014102	0.012054443	
1740735014103	0.09605408	
1740735014104	0.21354675	
1740735014105	0.33454895	
1740735014106	0.21362305	
1740735014107	-0.10139465	
1740735014108	-0.2054596	
1740735014109	-0.18714905	
1740735014110	-0.14434814	
1740735014111	-0.041427612	
1740735014112	0.037612915	
1740735014113	0.120773315	
1740735014114	0.21011353	
1740735014115	0.18600464	
1740735014116	0.046539307	
1740735014117	0.015411377	
1740735014118	0.014877319	
1740735014119	-0.10131836	
1740735014120	-0.11558533	
1740735014121	-0.035705566	
1740735014122	0.034561157	
1740735014123	0.044555664	
1740735014124	-0.13320923	
1740735014125	-0.27183533	
1740735014126	-0.24040222	
1740735014127	-0.11444092	
1740735014128	0.122680664	
1740735014129	0.24543762	
1740735014130	0.17448425	
1740735014131	-0.0074005127	
1740735014132	-0.23300171	
1740735014133	-0.26298523	
1740735014134	-0.06828308	
1740735014135	0.11550903	
1740735014136	0.17707825	
1740735014137	0.18951416	
1740735014138	0.10154724	
1740735014139	-0.052719116	
1740735014140	0.07949829	
1740735014141	0.18486023	
1740735014142	0.03463745	
1740735014143	0.1158905	
1740735014144	0.20011902	
1740735014145	0.14755249	
1740735014146	0.1412201	
1740735014147	0.022201538	
1740735014148	-0.0630188	
1740735014149	-0.11802673	
1740735014150	-0.16105652	
1740735014151	-0.11741638	
1740735014152	-0.14328003	
1740735014153	-0.12687683	
1740735014154	-0.09086609	
1740735014155	-0.12428284	
1740735014156	-0.1210022	
1740735014157	-0.10734558	
1740735014158	-0.12901306	
1740735014159	-0.104904175	
1740735014160	0.02067566	
1740735014161	0.04776001	
1740735014162	-0.0541687	
1740735014163	-0.016021729	
1740735014164	0.072631836	
1740735014165	0.13092041	
1740735014166	0.20072937	
1740735014167	0.11306763	
1740735014168	0.019226074	
1740735014169	0.08888245	
1740735014170	0.12420654	
1740735014171	0.07659912	
1740735014172	-0.009918213	
1740735014173	-0.15716553	
1740735014174	-0.21018982	
1740735014175	-0.19897461	
1740735014176	-0.17494202	
1740735014177	0.01411438	
1740735014178	0.23742676	
1740735014179	0.28808594	
1740735014180	0.18745422	
1740735014181	0.0075531006	
1740735014182	-0.119628906	
1740735014183	-0.17311096	
1740735014184	-0.09185791	
1740735014185	0.1158905	
1740735014186	0.15815735	
1740735014187	0.00831604	
1740735014188	-0.18577576	
1740735014189	-0.2521515	
1740735014190	-0.13076782	
1740735014191	-0.019836426	
1740735014192	0.1486206	
1740735014193	0.38215637	
1740735014194	0.36514282	
1740735014195	0.21492004	
1740735014196	0.16235352	
1740735014197	0.016708374	
1740735014198	-0.17532349	
1740735014199	-0.19752502	
1740735014200	-0.1663971	
1740735014201	-0.18882751	
1740735014202	-0.14335632	
1740735014203	-0.10246277	
1740735014204	-0.05821228	
1740735014205	0.08255005	
1740735014206	0.11871338	
1740735014207	0.025558472	
1740735014208	-0.048599243	
1740735014209	-0.05050659	
1740735014210	-0.0022125244	
1740735014211	-0.020446777	
1740735014212	-0.1210022	
1740735014213	-0.13534546	
1740735014214	-0.05760193	
1740735014215	-0.027770996	
1740735014216	0.07095337	
1740735014217	0.30548096	
1740735014218	0.3692627	
1740735014219	0.13809204	
1740735014220	-0.055923462	
1740735014221	-0.15777588	
1740735014222	-0.28541565	
1740735014223	-0.2281189	
1740735014224	-0.11756897	
1740735014225	-0.11856079	
1740735014226	-0.04623413	
1740735014227	0.034179688	
1740735014228	0.057373047	
1740735014229	0.09841919	
1740735014230	0.14526367	
1740735014231	0.1096344	
1740735014232	0.018005371	
1740735014233	0.04348755	
1740735014234	0.075531006	
1740735014235	0.061416626	
1740735014236	0.057144165	
1740735014237	0.08934021	
1740735014238	0.24658203	
1740735014239	0.1512909	
1740735014240	-0.09284973	
1740735014241	-0.046844482	
1740735014242	-0.04989624	
1740735014243	-0.08026123	
1740735014244	-0.073776245	
1740735014245	-0.29541016	
1740735014246	-0.3829193	
