# OpenSignals Text File Format
# {"00:80:E1:26:A1:B0":{"sensor":["EMG"],"device name":"00:80:E1:26:A1:B0","column":["timestamp","EMG"],"sync interval":2,"time":"09:40:48","comments":"","keywords":"","device connection":"BLE00:80:E1:26:A1:B0","channels":[0],"date":"2025-02-21","mode":0,"digital IO":[],"firmware version":259,"device":"musclebanplux","position":0,"sampling rate":1000,"label":["EMG"],"resolution":[16],"special":[{}],"sleeve color":["UNKNOWN"]}}
# EndOfHeader
1740127249028	0.0132751465	
1740127249029	0.0031280518	
1740127249030	-0.005569458	
1740127249031	-0.00831604	
1740127249032	-0.009918213	
1740127249033	-0.016021729	
1740127249034	-0.0017547607	
1740127249035	0.01411438	
1740127249036	0.0077056885	
1740127249037	0.01777649	
1740127249038	0.023345947	
1740127249039	0.010528564	
1740127249040	-0.0074005127	
1740127249041	-0.009536743	
1740127249042	0.008621216	
1740127249043	-0.001449585	
1740127249044	-0.019302368	
1740127249045	-0.010757446	
1740127249046	-0.0022125244	
1740127249047	-0.004348755	
1740127249048	-0.004501343	
1740127249049	0.0012207031	
1740127249050	0.013427734	
1740127249051	0.011672974	
1740127249052	-0.004425049	
1740127249053	-0.005645752	
1740127249054	-0.002670288	
1740127249055	0.0077819824	
1740127249056	0.021591187	
1740127249057	0.013122559	
1740127249058	0.0010681152	
1740127249059	0.004043579	
1740127249060	-0.0011444092	
1740127249061	-0.013580322	
1740127249062	-0.025024414	
1740127249063	-0.02784729	
1740127249064	-0.014877319	
1740127249065	-0.015945435	
1740127249066	-0.015563965	
1740127249067	0.0050354004	
1740127249068	0.016326904	
1740127249069	0.008544922	
1740127249070	0.0077056885	
1740127249071	0.015640259	
1740127249072	0.016479492	
1740127249073	0.010299683	
1740127249074	0.004196167	
1740127249075	-1.5258789E-4	
1740127249076	-0.004043579	
1740127249077	0.0034332275	
1740127249078	0.0061798096	
1740127249079	0.001373291	
1740127249080	0.0075531006	
1740127249081	0.00831604	
1740127249082	-2.2888184E-4	
1740127249083	-0.0032806396	
1740127249084	-0.0034332275	
1740127249085	-0.010147095	
1740127249086	-0.008163452	
1740127249087	-0.002670288	
1740127249088	-0.009841919	
1740127249089	-0.008010864	
1740127249090	-0.0074768066	
1740127249091	-0.002670288	
1740127249092	0.005722046	
1740127249093	-0.0012969971	
1740127249094	-0.0050354004	
1740127249095	-0.015792847	
1740127249096	-0.008239746	
1740127249097	0.011367798	
1740127249098	0.008087158	
1740127249099	0.013198853	
1740127249100	0.011367798	
1740127249101	-0.0022125244	
1740127249102	-0.009918213	
1740127249103	-0.014877319	
1740127249104	0.004119873	
1740127249105	0.017166138	
1740127249106	0.0036621094	
1740127249107	-0.002670288	
1740127249108	-0.0017547607	
1740127249109	0.005264282	
1740127249110	0.0	
1740127249111	-0.015258789	
1740127249112	4.5776367E-4	
1740127249113	0.01121521	
1740127249114	0.007247925	
1740127249115	0.017547607	
1740127249116	0.010223389	
1740127249117	-0.011444092	
1740127249118	-0.014190674	
1740127249119	-0.009460449	
1740127249120	-0.00831604	
1740127249121	0.00869751	
1740127249122	0.021591187	
1740127249123	0.012817383	
1740127249124	0.013580322	
1740127249125	0.0037384033	
1740127249126	-7.6293945E-5	
1740127249127	0.011291504	
1740127249128	-0.028839111	
1740127249129	-0.039901733	
1740127249130	-0.012435913	
1740127249131	-0.036239624	
1740127249132	-0.019454956	
1740127249133	0.010070801	
1740127249134	-4.5776367E-4	
1740127249135	0.013961792	
1740127249136	0.020141602	
1740127249137	0.015106201	
1740127249138	0.014877319	
1740127249139	0.004425049	
1740127249140	-0.0038909912	
1740127249141	-0.0066375732	
1740127249142	4.5776367E-4	
1740127249143	0.010147095	
1740127249144	0.007247925	
1740127249145	0.0076293945	
1740127249146	0.011520386	
1740127249147	0.0033569336	
1740127249148	-0.0035095215	
1740127249149	0.0	
1740127249150	0.004119873	
1740127249151	-0.0051116943	
1740127249152	-0.012512207	
1740127249153	-0.0048828125	
1740127249154	0.0022888184	
1740127249155	0.0021362305	
1740127249156	9.918213E-4	
1740127249157	-0.0032806396	
1740127249158	-0.025100708	
1740127249159	-0.026931763	
1740127249160	0.003967285	
1740127249161	0.0075531006	
1740127249162	3.8146973E-4	
1740127249163	-8.392334E-4	
1740127249164	-0.00869751	
1740127249165	0.006790161	
1740127249166	0.015487671	
1740127249167	0.005874634	
1740127249168	0.004348755	
1740127249169	-0.002746582	
1740127249170	-0.0022888184	
1740127249171	4.5776367E-4	
1740127249172	-0.005874634	
1740127249173	-0.0023651123	
1740127249174	0.002670288	
1740127249175	0.007247925	
1740127249176	0.012283325	
1740127249177	0.012435913	
1740127249178	0.011062622	
1740127249179	3.8146973E-4	
1740127249180	-0.01083374	
1740127249181	-0.010299683	
1740127249182	-0.008392334	
1740127249183	-0.008926392	
1740127249184	-0.00541687	
1740127249185	-0.0011444092	
1740127249186	0.0010681152	
1740127249187	0.0062561035	
1740127249188	0.00869751	
1740127249189	0.0033569336	
1740127249190	-0.0012207031	
1740127249191	0.0012969971	
1740127249192	0.0051116943	
1740127249193	0.0016784668	
1740127249194	-0.0019836426	
1740127249195	-0.0030517578	
1740127249196	-4.5776367E-4	
1740127249197	0.0016784668	
1740127249198	-0.0048065186	
1740127249199	-0.009460449	
1740127249200	-0.0048828125	
1740127249201	8.392334E-4	
1740127249202	-0.005569458	
1740127249203	-0.0118255615	
1740127249204	-0.0033569336	
1740127249205	0.009918213	
1740127249206	0.014190674	
1740127249207	0.0090789795	
1740127249208	0.0062561035	
1740127249209	0.0025939941	
1740127249210	-0.0011444092	
1740127249211	0.0023651123	
1740127249212	0.0047302246	
1740127249213	-0.0061035156	
1740127249214	-0.017623901	
1740127249215	-0.0132751465	
1740127249216	-0.0051116943	
1740127249217	6.1035156E-4	
1740127249218	0.0032043457	
1740127249219	-0.0025177002	
1740127249220	9.1552734E-4	
1740127249221	0.012512207	
1740127249222	0.008850098	
1740127249223	1.5258789E-4	
1740127249224	0.0020599365	
1740127249225	0.0059509277	
1740127249226	0.0061035156	
1740127249227	0.0021362305	
1740127249228	-0.0035095215	
1740127249229	-0.0022125244	
1740127249230	-0.0024414062	
1740127249231	-0.0032806396	
1740127249232	0.005264282	
1740127249233	0.0034332275	
1740127249234	-0.0065612793	
1740127249235	-0.0012207031	
1740127249236	0.0012207031	
1740127249237	-0.0034332275	
1740127249238	-0.004043579	
1740127249239	-0.008621216	
1740127249240	-0.004196167	
1740127249241	0.008850098	
1740127249242	0.016098022	
1740127249243	-4.5776367E-4	
1740127249244	-0.036010742	
1740127249245	-0.02960205	
1740127249246	0.0074768066	
1740127249247	0.0119018555	
1740127249248	0.010375977	
1740127249249	0.015258789	
1740127249250	0.0077056885	
1740127249251	0.0038909912	
1740127249252	0.0037384033	
1740127249253	0.0033569336	
1740127249254	-0.005264282	
1740127249255	-0.0064086914	
1740127249256	0.00869751	
1740127249257	0.0051879883	
1740127249258	0.0036621094	
1740127249259	0.01411438	
1740127249260	0.0024414062	
1740127249261	-0.018920898	
1740127249262	-0.02319336	
1740127249263	-0.0061798096	
1740127249264	0.0045776367	
1740127249265	0.008773804	
1740127249266	0.011291504	
1740127249267	0.011672974	
1740127249268	0.008163452	
1740127249269	-0.020217896	
1740127249270	-0.022506714	
1740127249271	-0.006866455	
1740127249272	-0.011978149	
1740127249273	-0.0034332275	
1740127249274	0.008010864	
1740127249275	0.013504028	
1740127249276	0.016555786	
1740127249277	0.014724731	
1740127249278	-5.340576E-4	
1740127249279	-0.012588501	
1740127249280	-0.0034332275	
1740127249281	-0.015106201	
1740127249282	-0.009689331	
1740127249283	0.013046265	
1740127249284	-0.009460449	
1740127249285	-0.022888184	
1740127249286	-8.392334E-4	
1740127249287	0.018692017	
1740127249288	0.013046265	
1740127249289	0.008468628	
1740127249290	0.015029907	
1740127249291	0.009994507	
1740127249292	0.010910034	
1740127249293	-0.0016021729	
1740127249294	-0.01411438	
1740127249295	-0.004425049	
1740127249296	-0.0029754639	
1740127249297	0.002670288	
1740127249298	0.004196167	
1740127249299	-0.0051879883	
1740127249300	-0.002746582	
1740127249301	-0.004272461	
1740127249302	-0.0077056885	
1740127249303	-0.0036621094	
1740127249304	-0.007247925	
1740127249305	-0.0034332275	
1740127249306	0.0061035156	
1740127249307	0.0059509277	
1740127249308	0.0104522705	
1740127249309	0.009231567	
1740127249310	3.0517578E-4	
1740127249311	-0.007858276	
1740127249312	-0.012359619	
1740127249313	-0.0019073486	
1740127249314	0.0034332275	
1740127249315	0.00579834	
1740127249316	0.0064849854	
1740127249317	-0.012664795	
1740127249318	-0.022583008	
1740127249319	-0.0032043457	
1740127249320	0.020828247	
1740127249321	0.016555786	
1740127249322	-0.01335144	
1740127249323	-0.024490356	
1740127249324	-0.011291504	
1740127249325	5.340576E-4	
1740127249326	0.010147095	
1740127249327	0.012893677	
1740127249328	0.009460449	
1740127249329	0.0010681152	
1740127249330	-0.0076293945	
1740127249331	-0.007247925	
1740127249332	0.002670288	
1740127249333	0.012283325	
1740127249334	8.392334E-4	
1740127249335	-0.0016021729	
1740127249336	0.00831604	
1740127249337	0.014801025	
1740127249338	0.02243042	
1740127249339	-0.009536743	
1740127249340	-0.018463135	
1740127249341	0.009002686	
1740127249342	0.0019836426	
1740127249343	0.001449585	
1740127249344	0.010147095	
1740127249345	0.007019043	
1740127249346	-0.008087158	
1740127249347	-0.017547607	
1740127249348	-0.00831604	
1740127249349	-0.020751953	
1740127249350	-0.015945435	
1740127249351	0.00831604	
1740127249352	0.003967285	
1740127249353	0.0047302246	
1740127249354	0.004348755	
1740127249355	0.0037384033	
1740127249356	0.0016021729	
1740127249357	-0.0019836426	
1740127249358	0.0049591064	
1740127249359	-0.005722046	
1740127249360	-0.00289917	
1740127249361	0.0012969971	
1740127249362	-0.00869751	
1740127249363	-0.0077056885	
1740127249364	-0.011749268	
1740127249365	-1.5258789E-4	
1740127249366	0.023269653	
1740127249367	0.022506714	
1740127249368	0.0073242188	
1740127249369	0.00541687	
1740127249370	0.007247925	
1740127249371	-0.0047302246	
1740127249372	-0.025024414	
1740127249373	-0.019836426	
1740127249374	0.0146484375	
1740127249375	0.009613037	
1740127249376	-0.001449585	
1740127249377	0.0038146973	
1740127249378	-0.01663208	
1740127249379	-0.012359619	
1740127249380	0.0073242188	
1740127249381	0.015792847	
1740127249382	0.012969971	
1740127249383	-0.008392334	
1740127249384	-0.0119018555	
1740127249385	-2.2888184E-4	
1740127249386	-4.5776367E-4	
1740127249387	-0.009918213	
1740127249388	-0.009841919	
1740127249389	-0.0017547607	
1740127249390	-0.0017547607	
1740127249391	0.0090789795	
1740127249392	0.020141602	
1740127249393	0.014266968	
1740127249394	0.004348755	
1740127249395	-0.006942749	
1740127249396	-0.01701355	
1740127249397	-0.01411438	
1740127249398	9.1552734E-4	
1740127249399	0.004272461	
1740127249400	0.0033569336	
1740127249401	0.0046539307	
1740127249402	1.5258789E-4	
1740127249403	-0.0010681152	
1740127249404	0.0037384033	
1740127249405	-0.0019073486	
1740127249406	-0.009307861	
1740127249407	0.0048065186	
1740127249408	0.010528564	
1740127249409	0.0065612793	
1740127249410	-6.1035156E-4	
1740127249411	-0.0036621094	
1740127249412	5.340576E-4	
1740127249413	-0.011520386	
1740127249414	-0.003967285	
1740127249415	0.007019043	
1740127249416	0.0046539307	
1740127249417	0.009689331	
1740127249418	0.010223389	
1740127249419	0.010147095	
1740127249420	-0.0012969971	
1740127249421	-0.019760132	
1740127249422	-0.030059814	
1740127249423	-0.0118255615	
1740127249424	0.013122559	
1740127249425	0.013122559	
1740127249426	0.010681152	
1740127249427	-0.010681152	
1740127249428	-0.016860962	
1740127249429	0.0012969971	
1740127249430	-0.005340576	
1740127249431	-0.002746582	
1740127249432	0.010604858	
1740127249433	0.010147095	
1740127249434	0.017471313	
1740127249435	0.02784729	
1740127249436	0.007247925	
1740127249437	-0.022354126	
1740127249438	-0.026168823	
1740127249439	-0.01121521	
1740127249440	0.017852783	
1740127249441	0.019836426	
1740127249442	0.0	
1740127249443	5.340576E-4	
1740127249444	-0.0036621094	
1740127249445	-0.004272461	
1740127249446	-0.004425049	
1740127249447	-0.021820068	
1740127249448	-0.020599365	
1740127249449	-2.2888184E-4	
1740127249450	0.0032043457	
1740127249451	0.004119873	
1740127249452	0.0066375732	
1740127249453	1.5258789E-4	
1740127249454	0.0017547607	
1740127249455	-0.0032806396	
1740127249456	-0.0025939941	
1740127249457	0.0075531006	
1740127249458	0.0029754639	
1740127249459	0.008392334	
1740127249460	0.012054443	
1740127249461	-0.009765625	
1740127249462	-0.023880005	
1740127249463	-0.013046265	
1740127249464	0.01449585	
1740127249465	0.029449463	
1740127249466	0.0132751465	
1740127249467	-0.009460449	
1740127249468	-0.010147095	
1740127249469	0.006790161	
1740127249470	0.0038909912	
1740127249471	-0.008926392	
1740127249472	-0.0032043457	
1740127249473	0.0022888184	
1740127249474	0.0022125244	
1740127249475	0.005569458	
1740127249476	0.0025177002	
1740127249477	-0.0036621094	
1740127249478	-0.003967285	
1740127249479	-0.0051879883	
1740127249480	-0.005340576	
1740127249481	-0.0032806396	
1740127249482	-0.0019073486	
1740127249483	0.0018310547	
1740127249484	0.01083374	
1740127249485	0.01625061	
1740127249486	0.0061798096	
1740127249487	-0.0119018555	
1740127249488	-0.015716553	
1740127249489	-0.01876831	
1740127249490	-0.024642944	
1740127249491	-0.01083374	
1740127249492	7.6293945E-5	
1740127249493	0.008926392	
1740127249494	0.014266968	
1740127249495	0.007019043	
1740127249496	0.008544922	
1740127249497	0.018234253	
1740127249498	0.02609253	
1740127249499	0.022583008	
1740127249500	0.0017547607	
1740127249501	-0.018234253	
1740127249502	-0.015182495	
1740127249503	-0.013504028	
1740127249504	-0.021438599	
1740127249505	-0.008239746	
1740127249506	0.00579834	
1740127249507	8.392334E-4	
1740127249508	-0.007019043	
1740127249509	-0.004196167	
1740127249510	0.011520386	
1740127249511	0.008392334	
1740127249512	-0.012435913	
1740127249513	-0.005645752	
1740127249514	0.011672974	
1740127249515	0.012435913	
1740127249516	0.015487671	
1740127249517	0.028152466	
1740127249518	0.025482178	
1740127249519	-0.004043579	
1740127249520	-0.02571106	
1740127249521	-0.019302368	
1740127249522	-0.00831604	
1740127249523	-0.014419556	
1740127249524	-0.018005371	
1740127249525	-0.007019043	
1740127249526	0.00541687	
1740127249527	0.012359619	
1740127249528	0.013656616	
1740127249529	0.008926392	
1740127249530	0.0035858154	
1740127249531	0.00793457	
1740127249532	0.0051116943	
1740127249533	-0.0010681152	
1740127249534	-0.0059509277	
1740127249535	-0.020141602	
1740127249536	-0.013580322	
1740127249537	-5.340576E-4	
1740127249538	-0.011672974	
1740127249539	-0.0064086914	
1740127249540	-0.0025177002	
1740127249541	-0.01625061	
1740127249542	0.009460449	
1740127249543	0.031814575	
1740127249544	0.016326904	
1740127249545	6.1035156E-4	
1740127249546	-0.022125244	
1740127249547	-0.01373291	
1740127249548	0.020217896	
1740127249549	0.010070801	
1740127249550	-3.0517578E-4	
1740127249551	0.0030517578	
1740127249552	-0.009765625	
1740127249553	-0.016708374	
1740127249554	-0.008850098	
1740127249555	0.019226074	
1740127249556	0.02166748	
1740127249557	-0.004348755	
1740127249558	-0.0077056885	
1740127249559	0.0051879883	
1740127249560	0.012207031	
1740127249561	-0.0034332275	
1740127249562	-0.0050354004	
1740127249563	0.0022888184	
1740127249564	-0.0011444092	
1740127249565	0.001373291	
1740127249566	0.0032043457	
1740127249567	0.009613037	
1740127249568	-0.0063323975	
1740127249569	-0.016784668	
1740127249570	0.0025939941	
1740127249571	0.0022888184	
1740127249572	0.00289917	
1740127249573	0.008621216	
1740127249574	0.002746582	
1740127249575	-0.018081665	
1740127249576	-0.029754639	
1740127249577	-0.003967285	
1740127249578	-0.0025939941	
1740127249579	-0.0059509277	
1740127249580	0.00793457	
1740127249581	6.1035156E-4	
1740127249582	0.005722046	
1740127249583	0.0073242188	
1740127249584	0.0047302246	
1740127249585	0.01663208	
1740127249586	0.0062561035	
1740127249587	-0.008544922	
1740127249588	-0.0048828125	
1740127249589	0.0038909912	
1740127249590	0.007247925	
1740127249591	-0.0018310547	
1740127249592	-0.005264282	
1740127249593	0.0	
1740127249594	-0.0018310547	
1740127249595	-0.005264282	
1740127249596	-0.004043579	
1740127249597	0.0	
1740127249598	-2.2888184E-4	
1740127249599	-0.0015258789	
1740127249600	9.1552734E-4	
1740127249601	0.004119873	
1740127249602	0.005340576	
1740127249603	0.0061035156	
1740127249604	0.005340576	
1740127249605	-0.0018310547	
1740127249606	-0.00831604	
1740127249607	-0.0016021729	
1740127249608	0.00869751	
1740127249609	0.004043579	
1740127249610	3.8146973E-4	
1740127249611	7.6293945E-4	
1740127249612	-0.002746582	
1740127249613	0.0024414062	
1740127249614	6.866455E-4	
1740127249615	-0.006790161	
1740127249616	-0.00793457	
1740127249617	-0.009841919	
1740127249618	0.0012207031	
1740127249619	0.013122559	
1740127249620	0.0075531006	
1740127249621	6.866455E-4	
1740127249622	-0.0074005127	
1740127249623	-0.012588501	
1740127249624	-0.009994507	
1740127249625	0.0019836426	
1740127249626	0.012207031	
1740127249627	3.0517578E-4	
1740127249628	-0.003967285	
1740127249629	-0.0048065186	
1740127249630	-0.0075531006	
1740127249631	0.004119873	
1740127249632	0.004119873	
1740127249633	0.0062561035	
1740127249634	0.009841919	
1740127249635	0.0012207031	
1740127249636	0.0065612793	
1740127249637	0.010528564	
1740127249638	-4.5776367E-4	
1740127249639	-0.0061035156	
1740127249640	0.0017547607	
1740127249641	-7.6293945E-5	
1740127249642	-0.009231567	
1740127249643	-0.0049591064	
1740127249644	-0.0076293945	
1740127249645	-9.1552734E-4	
1740127249646	0.0132751465	
1740127249647	0.005645752	
1740127249648	0.0	
1740127249649	-0.011672974	
1740127249650	-0.028152466	
1740127249651	-0.017700195	
1740127249652	2.2888184E-4	
1740127249653	0.009155273	
1740127249654	0.0119018555	
1740127249655	0.00869751	
1740127249656	0.007247925	
1740127249657	-9.1552734E-4	
1740127249658	-9.918213E-4	
1740127249659	0.0048828125	
1740127249660	-0.0030517578	
1740127249661	-0.0048828125	
1740127249662	-0.004348755	
1740127249663	9.1552734E-4	
1740127249664	0.0036621094	
1740127249665	7.6293945E-4	
1740127249666	0.008392334	
1740127249667	0.0048828125	
1740127249668	0.007171631	
1740127249669	0.010375977	
1740127249670	-0.0061035156	
1740127249671	-0.0032806396	
1740127249672	0.005264282	
1740127249673	0.0018310547	
1740127249674	3.8146973E-4	
1740127249675	-0.0064086914	
1740127249676	-0.005493164	
1740127249677	-0.007171631	
1740127249678	-0.011520386	
1740127249679	-0.001373291	
1740127249680	0.0061035156	
1740127249681	0.006713867	
1740127249682	3.0517578E-4	
1740127249683	-0.0029754639	
1740127249684	0.0021362305	
1740127249685	0.0022125244	
1740127249686	-0.0045776367	
1740127249687	-0.016555786	
1740127249688	-0.015029907	
1740127249689	0.0030517578	
1740127249690	0.016784668	
1740127249691	0.024871826	
1740127249692	0.014190674	
1740127249693	-0.010070801	
1740127249694	-0.010299683	
1740127249695	0.001373291	
1740127249696	7.6293945E-4	
1740127249697	-0.010910034	
1740127249698	-0.022964478	
1740127249699	-0.016174316	
1740127249700	-0.0024414062	
1740127249701	0.009765625	
1740127249702	0.015945435	
1740127249703	0.0046539307	
1740127249704	-0.008773804	
1740127249705	-0.002746582	
1740127249706	0.012435913	
1740127249707	0.01335144	
1740127249708	0.016326904	
1740127249709	0.012359619	
1740127249710	-0.0066375732	
1740127249711	-0.008163452	
1740127249712	-0.0031280518	
1740127249713	0.0020599365	
1740127249714	0.00289917	
1740127249715	-0.004272461	
1740127249716	1.5258789E-4	
1740127249717	0.0020599365	
1740127249718	-8.392334E-4	
1740127249719	9.918213E-4	
1740127249720	0.0016784668	
1740127249721	0.0012207031	
1740127249722	-0.0037384033	
1740127249723	-0.012207031	
1740127249724	-0.009460449	
1740127249725	0.0021362305	
1740127249726	-0.0015258789	
1740127249727	-0.0019073486	
1740127249728	0.012664795	
1740127249729	0.00831604	
1740127249730	-0.0016784668	
1740127249731	0.0019836426	
1740127249732	-0.0016021729	
1740127249733	-0.00831604	
1740127249734	-0.010223389	
1740127249735	-5.340576E-4	
1740127249736	0.005645752	
1740127249737	-0.0047302246	
1740127249738	0.001449585	
1740127249739	-0.0046539307	
1740127249740	-0.022506714	
1740127249741	-0.012512207	
1740127249742	-0.0033569336	
1740127249743	0.0010681152	
1740127249744	0.009231567	
1740127249745	0.013885498	
1740127249746	0.01777649	
1740127249747	0.014724731	
1740127249748	0.004272461	
1740127249749	-7.6293945E-5	
1740127249750	0.0036621094	
1740127249751	0.0025939941	
1740127249752	-3.8146973E-4	
1740127249753	0.0065612793	
1740127249754	0.0037384033	
1740127249755	-4.5776367E-4	
1740127249756	0.0022888184	
1740127249757	-0.008621216	
1740127249758	-0.007171631	
1740127249759	0.0019836426	
1740127249760	0.0021362305	
1740127249761	-0.001449585	
1740127249762	-0.009689331	
1740127249763	-0.004119873	
1740127249764	-0.0037384033	
1740127249765	-0.009536743	
1740127249766	-0.0034332275	
1740127249767	-7.6293945E-5	
1740127249768	0.0016784668	
1740127249769	-0.001449585	
1740127249770	-0.0037384033	
1740127249771	3.0517578E-4	
1740127249772	0.0012207031	
1740127249773	-7.6293945E-5	
1740127249774	0.00289917	
1740127249775	3.8146973E-4	
1740127249776	-0.007171631	
1740127249777	-0.002822876	
1740127249778	0.0018310547	
1740127249779	-0.004425049	
1740127249780	-0.0059509277	
1740127249781	5.340576E-4	
1740127249782	0.001373291	
1740127249783	0.005722046	
1740127249784	0.00869751	
1740127249785	0.0035858154	
1740127249786	0.0048065186	
1740127249787	0.001373291	
1740127249788	-0.0031280518	
1740127249789	0.0	
1740127249790	-0.0016784668	
1740127249791	0.002670288	
1740127249792	0.007095337	
1740127249793	-0.001373291	
1740127249794	-0.0030517578	
1740127249795	6.866455E-4	
1740127249796	0.003967285	
1740127249797	0.0064086914	
1740127249798	0.004119873	
1740127249799	9.1552734E-4	
1740127249800	0.0031280518	
1740127249801	0.0048065186	
1740127249802	-0.005340576	
1740127249803	-0.0063323975	
1740127249804	-0.004272461	
1740127249805	-0.010757446	
1740127249806	-0.0030517578	
1740127249807	-0.0025939941	
1740127249808	-0.007171631	
1740127249809	-0.00289917	
1740127249810	0.001373291	
1740127249811	0.015029907	
1740127249812	0.025100708	
1740127249813	0.018844604	
1740127249814	-0.012588501	
1740127249815	-0.030975342	
1740127249816	-0.0059509277	
1740127249817	0.015716553	
1740127249818	0.006942749	
1740127249819	-0.001373291	
1740127249820	0.00541687	
1740127249821	0.002746582	
1740127249822	0.0019073486	
1740127249823	-0.0030517578	
1740127249824	-0.009536743	
1740127249825	0.0016784668	
1740127249826	0.0023651123	
1740127249827	0.0061035156	
1740127249828	0.0119018555	
1740127249829	0.0045776367	
1740127249830	0.001373291	
1740127249831	-0.0090789795	
1740127249832	-0.011749268	
1740127249833	-0.008773804	
1740127249834	-0.0074768066	
1740127249835	-7.6293945E-4	
1740127249836	-0.006713867	
1740127249837	-0.014343262	
1740127249838	-0.005645752	
1740127249839	0.0035858154	
1740127249840	0.0016784668	
1740127249841	0.00541687	
1740127249842	0.0035858154	
1740127249843	-0.0048065186	
1740127249844	-0.0034332275	
1740127249845	-0.00579834	
1740127249846	-0.010681152	
1740127249847	-0.0045776367	
1740127249848	0.0019073486	
1740127249849	0.004348755	
1740127249850	0.007095337	
1740127249851	0.0066375732	
1740127249852	0.0059509277	
1740127249853	6.1035156E-4	
1740127249854	-0.0015258789	
1740127249855	0.0034332275	
1740127249856	0.008239746	
1740127249857	0.00793457	
1740127249858	-0.004425049	
1740127249859	-0.005340576	
1740127249860	0.0022125244	
1740127249861	-1.5258789E-4	
1740127249862	-0.0015258789	
1740127249863	0.0011444092	
1740127249864	-2.2888184E-4	
1740127249865	-0.0035858154	
1740127249866	-0.004119873	
1740127249867	-0.0061035156	
1740127249868	9.918213E-4	
1740127249869	0.010223389	
1740127249870	0.004196167	
1740127249871	0.0059509277	
1740127249872	0.011672974	
1740127249873	-4.5776367E-4	
1740127249874	-0.0020599365	
1740127249875	0.004119873	
1740127249876	-1.5258789E-4	
1740127249877	-0.0034332275	
1740127249878	-0.0030517578	
1740127249879	-0.0036621094	
1740127249880	-0.005874634	
1740127249881	-0.0034332275	
1740127249882	-0.0016021729	
1740127249883	-0.0031280518	
1740127249884	0.0017547607	
1740127249885	0.0012969971	
1740127249886	2.2888184E-4	
1740127249887	0.002670288	
1740127249888	-0.0016784668	
1740127249889	-0.0016784668	
1740127249890	-5.340576E-4	
1740127249891	-4.5776367E-4	
1740127249892	0.0019073486	
1740127249893	-0.0021362305	
1740127249894	-3.0517578E-4	
1740127249895	0.0061798096	
1740127249896	4.5776367E-4	
1740127249897	4.5776367E-4	
1740127249898	0.0016784668	
1740127249899	-0.0012207031	
1740127249900	0.0065612793	
1740127249901	0.004272461	
1740127249902	6.866455E-4	
1740127249903	0.002822876	
1740127249904	-0.0062561035	
1740127249905	-0.0035095215	
1740127249906	0.007095337	
1740127249907	0.0021362305	
1740127249908	-7.6293945E-4	
1740127249909	0.0047302246	
1740127249910	0.00541687	
1740127249911	0.004043579	
1740127249912	8.392334E-4	
1740127249913	-9.918213E-4	
1740127249914	-0.004043579	
1740127249915	-0.007247925	
1740127249916	-0.0036621094	
1740127249917	-0.0032806396	
1740127249918	-0.009765625	
1740127249919	-0.0077819824	
1740127249920	0.0016021729	
1740127249921	-0.0030517578	
1740127249922	-0.00869751	
1740127249923	0.0032806396	
1740127249924	0.0073242188	
1740127249925	0.0012207031	
1740127249926	0.0018310547	
1740127249927	0.0065612793	
1740127249928	0.004425049	
1740127249929	-0.0010681152	
1740127249930	2.2888184E-4	
1740127249931	-0.002822876	
1740127249932	-0.008850098	
1740127249933	-0.014419556	
1740127249934	-0.008239746	
1740127249935	0.0018310547	
1740127249936	-0.0023651123	
1740127249937	0.0032043457	
1740127249938	0.005493164	
1740127249939	-1.5258789E-4	
1740127249940	0.013656616	
1740127249941	0.013580322	
1740127249942	-9.1552734E-4	
1740127249943	-0.015945435	
1740127249944	-0.020141602	
1740127249945	0.0048828125	
1740127249946	0.011138916	
1740127249947	0.010910034	
1740127249948	0.02243042	
1740127249949	0.016860962	
1740127249950	0.02243042	
1740127249951	-7.6293945E-4	
1740127249952	-0.0743866	
1740127249953	-0.07286072	
1740127249954	-0.01914978	
1740127249955	-0.017929077	
1740127249956	0.0090789795	
1740127249957	0.046463013	
1740127249958	0.02281189	
1740127249959	0.0119018555	
1740127249960	0.013504028	
1740127249961	0.011062622	
1740127249962	0.0073242188	
1740127249963	0.008010864	
1740127249964	0.021514893	
1740127249965	0.012054443	
1740127249966	-3.0517578E-4	
1740127249967	-0.00289917	
1740127249968	-0.0020599365	
1740127249969	2.2888184E-4	
1740127249970	-0.012817383	
1740127249971	-0.009613037	
1740127249972	0.0075531006	
1740127249973	0.004043579	
1740127249974	-0.005264282	
1740127249975	-0.0132751465	
1740127249976	-0.014343262	
1740127249977	0.008163452	
1740127249978	0.016403198	
1740127249979	0.0034332275	
1740127249980	-8.392334E-4	
1740127249981	-0.0074768066	
1740127249982	-0.0061035156	
1740127249983	-6.866455E-4	
1740127249984	-0.004501343	
1740127249985	-0.0030517578	
1740127249986	-0.0016784668	
1740127249987	-1.5258789E-4	
1740127249988	0.0024414062	
1740127249989	7.6293945E-4	
1740127249990	-0.0015258789	
1740127249991	0.0018310547	
1740127249992	0.006790161	
1740127249993	0.010299683	
1740127249994	0.00831604	
1740127249995	8.392334E-4	
1740127249996	0.0059509277	
1740127249997	0.008239746	
1740127249998	0.001449585	
1740127249999	0.0012969971	
1740127250000	2.2888184E-4	
1740127250001	9.918213E-4	
1740127250002	0.0015258789	
1740127250003	-0.0032043457	
1740127250004	-0.0046539307	
1740127250005	-0.0074768066	
1740127250006	-0.00869751	
1740127250007	-0.0061035156	
1740127250008	-0.008621216	
1740127250009	-0.008544922	
1740127250010	-0.004196167	
1740127250011	-0.0010681152	
1740127250012	-3.0517578E-4	
1740127250013	-0.0010681152	
1740127250014	-0.0019073486	
1740127250015	-9.918213E-4	
1740127250016	0.0019073486	
1740127250017	-0.0038146973	
1740127250018	-0.005264282	
1740127250019	0.003967285	
1740127250020	0.0059509277	
1740127250021	-0.0021362305	
1740127250022	-0.006866455	
1740127250023	-0.0022125244	
1740127250024	-0.005264282	
1740127250025	-0.011520386	
1740127250026	-0.004119873	
1740127250027	0.001373291	
1740127250028	-0.0031280518	
1740127250029	-0.0048065186	
1740127250030	-7.6293945E-4	
1740127250031	0.004425049	
1740127250032	0.013046265	
1740127250033	0.021743774	
1740127250034	0.024490356	
1740127250035	0.012283325	
1740127250036	-0.018310547	
1740127250037	-0.02319336	
1740127250038	0.0074005127	
1740127250039	-0.008468628	
1740127250040	-0.046691895	
1740127250041	-0.02418518	
1740127250042	0.011978149	
1740127250043	0.006942749	
1740127250044	-0.01739502	
1740127250045	-0.015411377	
1740127250046	0.0104522705	
1740127250047	0.030975342	
1740127250048	0.031204224	
1740127250049	0.03303528	
1740127250050	0.03730774	
1740127250051	0.021362305	
1740127250052	0.015487671	
1740127250053	0.009155273	
1740127250054	-0.013885498	
1740127250055	-0.019683838	
1740127250056	-0.0024414062	
1740127250057	0.014877319	
1740127250058	0.009231567	
1740127250059	-0.0048065186	
1740127250060	-0.011062622	
1740127250061	-0.010375977	
1740127250062	-0.00831604	
1740127250063	-0.0074005127	
1740127250064	-0.007247925	
1740127250065	-0.009231567	
1740127250066	-0.010223389	
1740127250067	-0.012359619	
1740127250068	-0.00793457	
1740127250069	-0.0016021729	
1740127250070	-0.0048065186	
1740127250071	-0.0022125244	
1740127250072	0.008621216	
1740127250073	0.009384155	
1740127250074	0.0030517578	
1740127250075	-0.0035858154	
1740127250076	-0.005264282	
1740127250077	9.918213E-4	
1740127250078	0.004425049	
1740127250079	0.0016021729	
1740127250080	0.0015258789	
1740127250081	0.003967285	
1740127250082	0.0038909912	
1740127250083	0.001373291	
1740127250084	-3.0517578E-4	
1740127250085	6.1035156E-4	
1740127250086	0.0025939941	
1740127250087	0.0024414062	
1740127250088	0.0	
1740127250089	-6.1035156E-4	
1740127250090	-0.0029754639	
1740127250091	-0.0073242188	
1740127250092	-0.0030517578	
1740127250093	9.918213E-4	
1740127250094	-0.0012207031	
1740127250095	-1.5258789E-4	
1740127250096	0.0048828125	
1740127250097	0.009918213	
1740127250098	0.0036621094	
1740127250099	-0.0034332275	
1740127250100	-0.0090789795	
1740127250101	-0.00869751	
1740127250102	-8.392334E-4	
1740127250103	-0.007019043	
1740127250104	-0.0077056885	
1740127250105	-0.0051116943	
1740127250106	-0.0021362305	
1740127250107	0.0038146973	
1740127250108	-0.0012207031	
1740127250109	0.001373291	
1740127250110	0.002670288	
1740127250111	-6.1035156E-4	
1740127250112	-3.8146973E-4	
1740127250113	-0.00579834	
1740127250114	-0.004501343	
1740127250115	7.6293945E-5	
1740127250116	-0.0025939941	
1740127250117	-5.340576E-4	
1740127250118	0.0034332275	
1740127250119	-5.340576E-4	
1740127250120	0.0	
1740127250121	0.0022125244	
1740127250122	0.003967285	
1740127250123	0.007095337	
1740127250124	0.0063323975	
1740127250125	0.0051116943	
1740127250126	0.004501343	
1740127250127	0.0048065186	
1740127250128	-6.866455E-4	
1740127250129	0.0017547607	
1740127250130	0.0065612793	
1740127250131	-0.0045776367	
1740127250132	-0.005264282	
1740127250133	7.6293945E-4	
1740127250134	0.0031280518	
1740127250135	-3.0517578E-4	
1740127250136	-0.0061035156	
1740127250137	-0.002822876	
1740127250138	-0.0010681152	
1740127250139	-0.0010681152	
1740127250140	0.0019073486	
1740127250141	0.011138916	
1740127250142	0.0077819824	
1740127250143	-0.0048828125	
1740127250144	0.0019836426	
1740127250145	5.340576E-4	
1740127250146	-0.0015258789	
1740127250147	0.004043579	
1740127250148	-7.6293945E-5	
1740127250149	-5.340576E-4	
1740127250150	0.0	
1740127250151	-1.5258789E-4	
1740127250152	-0.0032043457	
1740127250153	-0.0023651123	
1740127250154	-0.0017547607	
1740127250155	-0.003967285	
1740127250156	-1.5258789E-4	
1740127250157	-0.0037384033	
1740127250158	-0.0031280518	
1740127250159	-6.1035156E-4	
1740127250160	-0.001449585	
1740127250161	0.0021362305	
1740127250162	-0.0019073486	
1740127250163	-0.0022888184	
1740127250164	0.0038146973	
1740127250165	0.001373291	
1740127250166	-0.0037384033	
1740127250167	-0.0022125244	
1740127250168	0.0035858154	
1740127250169	0.0033569336	
1740127250170	0.0019836426	
1740127250171	0.0060272217	
1740127250172	0.0076293945	
1740127250173	0.00793457	
1740127250174	-0.009841919	
1740127250175	-0.02204895	
1740127250176	-0.004272461	
1740127250177	-0.0018310547	
1740127250178	0.0031280518	
1740127250179	0.0119018555	
1740127250180	0.0016021729	
1740127250181	-0.0012207031	
1740127250182	-0.0049591064	
1740127250183	-0.0015258789	
1740127250184	0.003967285	
1740127250185	0.0016021729	
1740127250186	0.0073242188	
1740127250187	0.0059509277	
1740127250188	-0.0015258789	
1740127250189	0.001373291	
1740127250190	0.004119873	
1740127250191	2.2888184E-4	
1740127250192	-0.002822876	
1740127250193	-0.0021362305	
1740127250194	-0.0022125244	
1740127250195	-0.0049591064	
1740127250196	-9.918213E-4	
1740127250197	0.0019836426	
1740127250198	-0.0019073486	
1740127250199	-0.0016784668	
1740127250200	-0.0025177002	
1740127250201	-0.005645752	
1740127250202	-0.004425049	
1740127250203	-0.001373291	
1740127250204	-0.0024414062	
1740127250205	-1.5258789E-4	
1740127250206	9.918213E-4	
1740127250207	-0.005340576	
1740127250208	-0.0022125244	
1740127250209	0.0019836426	
1740127250210	-0.0021362305	
1740127250211	-0.0016784668	
1740127250212	-1.5258789E-4	
1740127250213	-0.0010681152	
1740127250214	0.0036621094	
1740127250215	0.0050354004	
1740127250216	-9.918213E-4	
1740127250217	-0.0022125244	
1740127250218	-9.918213E-4	
1740127250219	9.918213E-4	
1740127250220	0.0024414062	
1740127250221	0.0016784668	
1740127250222	0.0015258789	
1740127250223	-0.0022125244	
1740127250224	-0.0017547607	
1740127250225	0.0065612793	
1740127250226	0.006790161	
1740127250227	0.002746582	
1740127250228	0.0015258789	
1740127250229	-0.0020599365	
1740127250230	-0.0064849854	
1740127250231	-0.004272461	
1740127250232	0.0037384033	
1740127250233	0.0022888184	
1740127250234	4.5776367E-4	
1740127250235	0.0046539307	
1740127250236	6.1035156E-4	
1740127250237	-0.0010681152	
1740127250238	9.918213E-4	
1740127250239	-0.0012207031	
1740127250240	-9.918213E-4	
1740127250241	3.0517578E-4	
1740127250242	0.00289917	
1740127250243	0.0049591064	
1740127250244	0.0038909912	
1740127250245	-7.6293945E-4	
1740127250246	-0.0038146973	
1740127250247	8.392334E-4	
1740127250248	0.004272461	
1740127250249	0.0038909912	
1740127250250	-0.0021362305	
1740127250251	-0.004272461	
1740127250252	0.0011444092	
1740127250253	-7.6293945E-5	
1740127250254	-1.5258789E-4	
1740127250255	-9.1552734E-4	
1740127250256	1.5258789E-4	
1740127250257	0.0016784668	
1740127250258	-0.0025177002	
1740127250259	0.001449585	
1740127250260	-3.8146973E-4	
1740127250261	-0.0029754639	
1740127250262	0.0032043457	
1740127250263	8.392334E-4	
1740127250264	-0.004196167	
1740127250265	-0.001373291	
1740127250266	0.0024414062	
1740127250267	-4.5776367E-4	
1740127250268	7.6293945E-5	
1740127250269	0.0016021729	
1740127250270	-0.0038909912	
1740127250271	-0.00289917	
1740127250272	-8.392334E-4	
1740127250273	-0.004425049	
1740127250274	-0.002670288	
1740127250275	-0.0035858154	
1740127250276	-0.0049591064	
1740127250277	-0.004196167	
1740127250278	-0.0038146973	
1740127250279	0.0036621094	
1740127250280	6.1035156E-4	
1740127250281	-0.005645752	
1740127250282	-0.0019073486	
1740127250283	-5.340576E-4	
1740127250284	8.392334E-4	
1740127250285	0.002822876	
1740127250286	0.0074768066	
1740127250287	0.0029754639	
1740127250288	-0.0024414062	
1740127250289	0.004272461	
1740127250290	0.0012207031	
1740127250291	-0.0051116943	
1740127250292	-0.002746582	
1740127250293	0.002670288	
1740127250294	0.0037384033	
1740127250295	-3.0517578E-4	
1740127250296	0.0021362305	
1740127250297	0.002670288	
1740127250298	-0.0022125244	
1740127250299	2.2888184E-4	
1740127250300	0.0015258789	
1740127250301	-0.0023651123	
1740127250302	-0.0017547607	
1740127250303	-9.1552734E-4	
1740127250304	3.8146973E-4	
1740127250305	0.0022125244	
1740127250306	0.0023651123	
1740127250307	0.0064086914	
1740127250308	-5.340576E-4	
1740127250309	-0.0060272217	
1740127250310	3.0517578E-4	
1740127250311	-0.0015258789	
1740127250312	0.005645752	
1740127250313	0.00831604	
1740127250314	0.0012969971	
1740127250315	0.002822876	
1740127250316	0.0022125244	
1740127250317	0.0035095215	
1740127250318	-0.0051116943	
1740127250319	-0.012283325	
1740127250320	-0.009002686	
1740127250321	0.002746582	
1740127250322	0.00793457	
1740127250323	-0.012512207	
1740127250324	-0.010070801	
1740127250325	0.009231567	
1740127250326	0.017471313	
1740127250327	0.017929077	
1740127250328	0.004425049	
1740127250329	-0.006790161	
1740127250330	-0.014877319	
1740127250331	-0.00541687	
1740127250332	0.0051116943	
1740127250333	-9.1552734E-4	
1740127250334	0.005645752	
1740127250335	0.0016021729	
1740127250336	-0.0034332275	
1740127250337	0.005645752	
1740127250338	-0.001449585	
1740127250339	-0.0025177002	
1740127250340	0.006866455	
1740127250341	0.006713867	
1740127250342	0.0025177002	
1740127250343	-0.0066375732	
1740127250344	-0.019454956	
1740127250345	-0.03211975	
1740127250346	-0.033798218	
1740127250347	-0.00869751	
1740127250348	0.009613037	
1740127250349	0.0038146973	
1740127250350	0.0066375732	
1740127250351	0.008392334	
1740127250352	0.009994507	
1740127250353	0.007247925	
1740127250354	-0.0018310547	
1740127250355	0.0025939941	
1740127250356	-0.001449585	
1740127250357	-4.5776367E-4	
1740127250358	0.0047302246	
1740127250359	-3.0517578E-4	
1740127250360	0.0060272217	
1740127250361	0.0062561035	
1740127250362	-0.0010681152	
1740127250363	0.004425049	
1740127250364	0.005722046	
1740127250365	-0.008010864	
1740127250366	0.004196167	
1740127250367	0.031433105	
1740127250368	0.010299683	
1740127250369	-0.0038909912	
1740127250370	0.013046265	
1740127250371	-0.00289917	
1740127250372	-0.029296875	
1740127250373	-0.034713745	
1740127250374	-0.020523071	
1740127250375	0.0023651123	
1740127250376	0.009613037	
1740127250377	0.012893677	
1740127250378	0.015640259	
1740127250379	0.008544922	
1740127250380	0.0074768066	
1740127250381	0.0062561035	
1740127250382	0.004119873	
1740127250383	0.005493164	
1740127250384	0.0012969971	
1740127250385	-0.0018310547	
1740127250386	0.0018310547	
1740127250387	0.0022888184	
1740127250388	-0.0025939941	
1740127250389	-0.0038909912	
1740127250390	0.0010681152	
1740127250391	-0.0038146973	
1740127250392	-0.025253296	
1740127250393	-0.024337769	
1740127250394	-7.6293945E-5	
1740127250395	0.004348755	
1740127250396	0.002822876	
1740127250397	0.00869751	
1740127250398	1.5258789E-4	
1740127250399	-0.006790161	
1740127250400	-0.009536743	
1740127250401	-0.014801025	
1740127250402	-0.0064849854	
1740127250403	0.002670288	
1740127250404	0.002670288	
1740127250405	0.004272461	
1740127250406	0.0047302246	
1740127250407	-0.0012207031	
1740127250408	-0.0012969971	
1740127250409	0.0038909912	
1740127250410	0.0076293945	
1740127250411	0.008926392	
1740127250412	0.0010681152	
1740127250413	6.1035156E-4	
1740127250414	0.0023651123	
1740127250415	6.1035156E-4	
1740127250416	0.0015258789	
1740127250417	-0.002822876	
1740127250418	-4.5776367E-4	
1740127250419	0.0032806396	
1740127250420	-0.0015258789	
1740127250421	-0.004043579	
1740127250422	-0.0037384033	
1740127250423	-5.340576E-4	
1740127250424	0.0075531006	
1740127250425	0.008239746	
1740127250426	0.0038909912	
1740127250427	0.0038909912	
1740127250428	0.005645752	
1740127250429	0.0045776367	
1740127250430	0.007019043	
1740127250431	0.007171631	
1740127250432	1.5258789E-4	
1740127250433	1.5258789E-4	
1740127250434	9.918213E-4	
1740127250435	-0.0025177002	
1740127250436	-0.0036621094	
1740127250437	-0.0012969971	
1740127250438	-0.0034332275	
1740127250439	-0.0074005127	
1740127250440	-0.004196167	
1740127250441	-0.004348755	
1740127250442	-0.008239746	
1740127250443	-0.013198853	
1740127250444	-0.014266968	
1740127250445	-0.012130737	
1740127250446	-0.013046265	
1740127250447	-0.008087158	
1740127250448	-0.002670288	
1740127250449	0.002670288	
1740127250450	0.009765625	
1740127250451	0.011138916	
1740127250452	0.0076293945	
1740127250453	0.005569458	
1740127250454	0.010223389	
1740127250455	0.0119018555	
1740127250456	0.013427734	
1740127250457	0.017166138	
1740127250458	0.015487671	
1740127250459	0.018310547	
1740127250460	0.01991272	
1740127250461	0.011367798	
1740127250462	0.002822876	
1740127250463	-0.006713867	
1740127250464	-0.016555786	
1740127250465	-0.023422241	
1740127250466	-0.030136108	
1740127250467	-0.02960205	
1740127250468	-0.024795532	
1740127250469	-0.023880005	
1740127250470	-0.010147095	
1740127250471	0.004348755	
1740127250472	0.007095337	
1740127250473	0.013122559	
1740127250474	0.018997192	
1740127250475	0.013198853	
1740127250476	-0.0062561035	
1740127250477	-0.01373291	
1740127250478	-0.014419556	
1740127250479	-0.018615723	
1740127250480	6.866455E-4	
1740127250481	0.0289917	
1740127250482	0.042037964	
1740127250483	0.04333496	
1740127250484	0.038757324	
1740127250485	0.016860962	
1740127250486	-0.014877319	
1740127250487	-0.02998352	
1740127250488	-0.027770996	
1740127250489	-0.012969971	
1740127250490	-0.008010864	
1740127250491	-0.019989014	
1740127250492	-0.02418518	
1740127250493	-0.02067566	
1740127250494	-0.014038086	
1740127250495	-0.0032043457	
1740127250496	-0.009307861	
1740127250497	-0.011978149	
1740127250498	-0.014038086	
1740127250499	-0.011978149	
1740127250500	-0.0019073486	
1740127250501	-0.008926392	
1740127250502	-0.005340576	
1740127250503	1.5258789E-4	
1740127250504	0.0029754639	
1740127250505	0.011291504	
1740127250506	0.0060272217	
1740127250507	0.008621216	
1740127250508	0.014343262	
1740127250509	0.012359619	
1740127250510	0.013046265	
1740127250511	0.010299683	
1740127250512	0.014419556	
1740127250513	0.012359619	
1740127250514	0.0132751465	
1740127250515	0.01625061	
1740127250516	0.0066375732	
1740127250517	0.019836426	
1740127250518	0.020446777	
1740127250519	0.01701355	
1740127250520	0.026626587	
1740127250521	0.024490356	
1740127250522	0.021896362	
1740127250523	0.022659302	
1740127250524	0.02128601	
1740127250525	0.015792847	
1740127250526	0.010757446	
1740127250527	0.0077056885	
1740127250528	0.0021362305	
1740127250529	-0.00541687	
1740127250530	-0.01335144	
1740127250531	-0.018310547	
1740127250532	-0.022506714	
1740127250533	-0.027770996	
1740127250534	-0.025939941	
1740127250535	-0.025558472	
1740127250536	-0.024795532	
1740127250537	-0.030212402	
1740127250538	-0.026245117	
1740127250539	-0.027313232	
1740127250540	-0.026550293	
1740127250541	-0.01777649	
1740127250542	-0.021896362	
1740127250543	-0.014877319	
1740127250544	-0.01083374	
1740127250545	-0.00579834	
1740127250546	0.004425049	
1740127250547	0.0063323975	
1740127250548	0.012512207	
1740127250549	0.014343262	
1740127250550	0.017471313	
1740127250551	0.02128601	
1740127250552	0.016555786	
1740127250553	0.016098022	
1740127250554	0.017623901	
1740127250555	0.010375977	
1740127250556	0.008850098	
1740127250557	0.008239746	
1740127250558	9.1552734E-4	
1740127250559	-0.0010681152	
1740127250560	-0.0032806396	
1740127250561	-0.0035858154	
1740127250562	7.6293945E-5	
1740127250563	-0.0038146973	
1740127250564	-0.0059509277	
1740127250565	-0.008773804	
1740127250566	-0.0074768066	
1740127250567	-0.00541687	
1740127250568	-0.012588501	
1740127250569	-0.009384155	
1740127250570	-0.008468628	
1740127250571	-0.015411377	
1740127250572	-0.010757446	
1740127250573	-0.018844604	
1740127250574	-0.01991272	
1740127250575	-0.008621216	
1740127250576	-0.014419556	
1740127250577	-0.0065612793	
1740127250578	-0.013198853	
1740127250579	-0.008850098	
1740127250580	0.0016021729	
1740127250581	0.007247925	
1740127250582	0.013046265	
1740127250583	0.010910034	
1740127250584	0.011138916	
1740127250585	0.009689331	
1740127250586	0.0132751465	
1740127250587	0.021972656	
1740127250588	0.018005371	
1740127250589	0.02204895	
1740127250590	0.018157959	
1740127250591	0.01411438	
1740127250592	0.01991272	
1740127250593	0.012817383	
1740127250594	0.009918213	
1740127250595	0.017623901	
1740127250596	0.01335144	
1740127250597	0.009231567	
1740127250598	0.0077056885	
1740127250599	-0.0010681152	
1740127250600	0.004348755	
1740127250601	0.0016784668	
1740127250602	-0.002822876	
1740127250603	-9.1552734E-4	
1740127250604	-0.011062622	
1740127250605	-0.010604858	
1740127250606	-0.015106201	
1740127250607	-0.0132751465	
1740127250608	-0.006790161	
1740127250609	-0.014572144	
1740127250610	-0.013198853	
1740127250611	-0.017852783	
1740127250612	-0.02067566	
1740127250613	-0.011367798	
1740127250614	-0.014877319	
1740127250615	-0.013656616	
1740127250616	-0.008773804	
1740127250617	-0.018844604	
1740127250618	-0.018997192	
1740127250619	-0.012512207	
1740127250620	-0.0074005127	
1740127250621	-0.0023651123	
1740127250622	0.009460449	
1740127250623	0.017852783	
1740127250624	0.014572144	
1740127250625	0.008010864	
1740127250626	0.014419556	
1740127250627	0.02609253	
1740127250628	0.016708374	
1740127250629	0.029220581	
1740127250630	0.035476685	
1740127250631	0.029067993	
1740127250632	0.047607422	
1740127250633	0.050811768	
1740127250634	0.04638672	
1740127250635	0.04043579	
1740127250636	0.03211975	
1740127250637	0.015640259	
1740127250638	0.0049591064	
1740127250639	-0.0119018555	
1740127250640	-0.016403198	
1740127250641	-0.0289917	
1740127250642	-0.039749146	
1740127250643	-0.047912598	
1740127250644	-0.046081543	
1740127250645	-0.056762695	
1740127250646	-0.05645752	
1740127250647	-0.05531311	
1740127250648	-0.05203247	
1740127250649	-0.041809082	
1740127250650	-0.042266846	
1740127250651	-0.032958984	
1740127250652	-0.021743774	
1740127250653	-0.011444092	
1740127250654	-0.010147095	
1740127250655	-0.011291504	
1740127250656	0.0	
1740127250657	0.0016784668	
1740127250658	0.012741089	
1740127250659	0.010986328	
1740127250660	0.017547607	
1740127250661	0.018920898	
1740127250662	0.021820068	
1740127250663	0.037841797	
1740127250664	0.02418518	
1740127250665	0.027694702	
1740127250666	0.033950806	
1740127250667	0.031585693	
1740127250668	0.030212402	
1740127250669	0.026168823	
1740127250670	0.032806396	
1740127250671	0.035705566	
1740127250672	0.023040771	
1740127250673	0.02281189	
1740127250674	0.021591187	
1740127250675	0.018615723	
1740127250676	0.01121521	
1740127250677	0.009384155	
1740127250678	0.0051879883	
1740127250679	-0.012664795	
1740127250680	-0.013504028	
1740127250681	-0.017166138	
1740127250682	-0.022888184	
1740127250683	-0.022201538	
1740127250684	-0.03250122	
1740127250685	-0.032043457	
1740127250686	-0.025787354	
1740127250687	-0.03227234	
1740127250688	-0.031204224	
1740127250689	-0.026550293	
1740127250690	-0.021820068	
1740127250691	-0.012435913	
1740127250692	-0.010604858	
1740127250693	-0.012741089	
1740127250694	-0.010223389	
1740127250695	-0.006713867	
1740127250696	-0.0045776367	
1740127250697	-0.0045776367	
1740127250698	0.0015258789	
1740127250699	0.0020599365	
1740127250700	-6.1035156E-4	
1740127250701	0.0032806396	
1740127250702	0.0059509277	
1740127250703	0.010604858	
1740127250704	0.010604858	
1740127250705	0.011520386	
1740127250706	0.012817383	
1740127250707	0.010757446	
1740127250708	0.01411438	
1740127250709	0.0119018555	
1740127250710	0.019836426	
1740127250711	0.01625061	
1740127250712	0.012359619	
1740127250713	0.017089844	
1740127250714	0.016555786	
1740127250715	0.014038086	
1740127250716	0.005264282	
1740127250717	0.0075531006	
1740127250718	0.011444092	
1740127250719	-6.866455E-4	
1740127250720	-1.5258789E-4	
1740127250721	0.00289917	
1740127250722	-0.0022888184	
1740127250723	-0.001373291	
1740127250724	-0.0031280518	
1740127250725	-0.0061798096	
1740127250726	-0.00541687	
1740127250727	-0.0061035156	
1740127250728	-0.0059509277	
1740127250729	-0.004196167	
1740127250730	-0.0073242188	
1740127250731	-0.007247925	
1740127250732	-0.005340576	
1740127250733	-0.007095337	
1740127250734	-0.0038146973	
1740127250735	-0.004043579	
1740127250736	-0.009841919	
1740127250737	-0.01083374	
1740127250738	-0.008239746	
1740127250739	-0.0035858154	
1740127250740	1.5258789E-4	
1740127250741	0.001373291	
1740127250742	-0.0037384033	
1740127250743	-0.008239746	
1740127250744	-0.006942749	
1740127250745	-0.0032043457	
1740127250746	-0.0066375732	
1740127250747	-0.00793457	
1740127250748	0.0025177002	
1740127250749	0.0032043457	
1740127250750	-0.0015258789	
1740127250751	-0.0025177002	
1740127250752	4.5776367E-4	
1740127250753	0.0	
1740127250754	0.002746582	
1740127250755	0.0017547607	
1740127250756	8.392334E-4	
1740127250757	0.0016784668	
1740127250758	-9.918213E-4	
1740127250759	-0.0022888184	
1740127250760	0.0038146973	
1740127250761	0.0064849854	
1740127250762	-0.0064086914	
1740127250763	-0.0016784668	
1740127250764	0.0045776367	
1740127250765	-0.004196167	
1740127250766	0.0025177002	
1740127250767	7.6293945E-5	
1740127250768	-5.340576E-4	
1740127250769	0.0050354004	
1740127250770	-6.1035156E-4	
1740127250771	0.004348755	
1740127250772	0.0033569336	
1740127250773	4.5776367E-4	
1740127250774	-3.0517578E-4	
1740127250775	0.004196167	
1740127250776	0.008621216	
1740127250777	1.5258789E-4	
1740127250778	0.008392334	
1740127250779	-0.0023651123	
1740127250780	0.0061035156	
1740127250781	0.0049591064	
1740127250782	7.6293945E-5	
1740127250783	-6.1035156E-4	
1740127250784	0.00289917	
1740127250785	0.01159668	
1740127250786	0.0064849854	
1740127250787	0.008773804	
1740127250788	-6.1035156E-4	
1740127250789	0.0048828125	
1740127250790	0.00289917	
1740127250791	-0.005569458	
1740127250792	-0.0076293945	
1740127250793	0.004501343	
1740127250794	-0.007858276	
1740127250795	-0.009994507	
1740127250796	-0.009002686	
1740127250797	-0.01663208	
1740127250798	-0.011138916	
1740127250799	-0.0024414062	
1740127250800	-0.013198853	
1740127250801	-0.018539429	
1740127250802	-0.0076293945	
1740127250803	-0.010375977	
1740127250804	0.0035095215	
1740127250805	0.008392334	
1740127250806	0.0025177002	
1740127250807	0.016937256	
1740127250808	0.0020599365	
1740127250809	0.013198853	
1740127250810	0.012588501	
1740127250811	0.0090789795	
1740127250812	0.007247925	
1740127250813	0.009307861	
1740127250814	0.016937256	
1740127250815	-0.0021362305	
1740127250816	-0.002746582	
1740127250817	-0.0015258789	
1740127250818	-0.009613037	
1740127250819	-0.0050354004	
1740127250820	-0.012359619	
1740127250821	-0.014266968	
1740127250822	-0.013504028	
1740127250823	-0.017242432	
1740127250824	-0.009613037	
1740127250825	-0.0119018555	
1740127250826	-0.015945435	
1740127250827	-0.012054443	
1740127250828	-0.014419556	
1740127250829	-0.009460449	
1740127250830	-0.0050354004	
1740127250831	-0.006713867	
1740127250832	-0.004196167	
1740127250833	-0.0074005127	
1740127250834	-0.005645752	
1740127250835	-0.0024414062	
1740127250836	-0.0034332275	
1740127250837	-3.8146973E-4	
1740127250838	0.0011444092	
1740127250839	0.003967285	
1740127250840	0.0032806396	
1740127250841	0.0016784668	
1740127250842	0.008773804	
1740127250843	0.008392334	
1740127250844	0.008163452	
1740127250845	0.015945435	
1740127250846	0.014266968	
1740127250847	0.011520386	
1740127250848	0.017623901	
1740127250849	0.019836426	
1740127250850	0.019760132	
1740127250851	0.0146484375	
1740127250852	0.004425049	
1740127250853	0.004043579	
1740127250854	0.01083374	
1740127250855	0.005340576	
1740127250856	-3.8146973E-4	
1740127250857	0.0019836426	
1740127250858	0.0033569336	
1740127250859	-5.340576E-4	
1740127250860	-0.010299683	
1740127250861	-0.0075531006	
1740127250862	-0.012817383	
1740127250863	-0.020141602	
1740127250864	-0.010528564	
1740127250865	-0.015106201	
1740127250866	-0.013656616	
1740127250867	-0.00831604	
1740127250868	-0.00831604	
1740127250869	0.0073242188	
1740127250870	0.006866455	
1740127250871	-7.6293945E-4	
1740127250872	0.005569458	
1740127250873	0.004043579	
1740127250874	0.007858276	
1740127250875	0.015106201	
1740127250876	0.014038086	
1740127250877	0.021209717	
1740127250878	0.01373291	
1740127250879	0.013427734	
1740127250880	0.02029419	
1740127250881	0.008850098	
1740127250882	0.016937256	
1740127250883	0.018539429	
1740127250884	0.0076293945	
1740127250885	0.011672974	
1740127250886	0.0034332275	
1740127250887	-0.001449585	
1740127250888	-0.0015258789	
1740127250889	-0.021514893	
1740127250890	-0.021972656	
1740127250891	-0.0289917	
1740127250892	-0.020370483	
1740127250893	-0.026626587	
1740127250894	-0.033493042	
1740127250895	-0.018844604	
1740127250896	-0.03173828	
1740127250897	-0.02029419	
1740127250898	-0.011367798	
1740127250899	-0.017242432	
1740127250900	-0.010528564	
1740127250901	-0.019073486	
1740127250902	-0.019836426	
1740127250903	-0.009460449	
1740127250904	-0.0073242188	
1740127250905	-0.009613037	
1740127250906	-0.013198853	
1740127250907	-0.016937256	
1740127250908	-0.01121521	
1740127250909	-6.866455E-4	
1740127250910	0.0047302246	
1740127250911	0.020828247	
1740127250912	0.032958984	
1740127250913	0.04852295	
1740127250914	0.054626465	
1740127250915	0.042266846	
1740127250916	0.03517151	
1740127250917	0.016174316	
1740127250918	0.010681152	
1740127250919	0.0051116943	
1740127250920	-0.009841919	
1740127250921	-0.0034332275	
1740127250922	-0.009841919	
1740127250923	-0.010375977	
1740127250924	-8.392334E-4	
1740127250925	-0.0022888184	
1740127250926	0.0030517578	
1740127250927	-0.005645752	
1740127250928	-0.005874634	
1740127250929	-0.0025177002	
1740127250930	0.0051116943	
1740127250931	0.008850098	
1740127250932	0.019607544	
1740127250933	0.027770996	
1740127250934	0.010147095	
1740127250935	-0.010604858	
1740127250936	-0.028457642	
1740127250937	-0.029754639	
1740127250938	-0.02571106	
1740127250939	-0.03768921	
1740127250940	-0.036010742	
1740127250941	-0.029296875	
1740127250942	-0.021591187	
1740127250943	-0.0047302246	
1740127250944	0.0016021729	
1740127250945	0.008926392	
1740127250946	0.012664795	
1740127250947	0.0077056885	
1740127250948	0.009231567	
1740127250949	0.008850098	
1740127250950	0.0034332275	
1740127250951	-0.002822876	
1740127250952	-0.0051116943	
1740127250953	-0.005874634	
1740127250954	-0.018005371	
1740127250955	-0.019683838	
1740127250956	-0.01953125	
1740127250957	-0.013885498	
1740127250958	7.6293945E-5	
1740127250959	7.6293945E-5	
1740127250960	0.0050354004	
1740127250961	0.01625061	
1740127250962	0.034103394	
1740127250963	0.06492615	
1740127250964	0.0705719	
1740127250965	0.0605011	
1740127250966	0.056533813	
1740127250967	0.034713745	
1740127250968	9.918213E-4	
1740127250969	-0.009307861	
1740127250970	0.002822876	
1740127250971	-0.0030517578	
1740127250972	-0.021057129	
1740127250973	-0.042877197	
1740127250974	-0.0541687	
1740127250975	-0.044174194	
1740127250976	-0.027694702	
1740127250977	0.002822876	
1740127250978	0.022506714	
1740127250979	0.02067566	
1740127250980	0.02166748	
1740127250981	0.013198853	
1740127250982	-0.0076293945	
1740127250983	-0.027389526	
1740127250984	-0.044326782	
1740127250985	-0.043411255	
1740127250986	-0.03883362	
1740127250987	-0.054092407	
1740127250988	-0.051345825	
1740127250989	-0.03517151	
1740127250990	-0.03303528	
1740127250991	-0.029220581	
1740127250992	-0.02708435	
1740127250993	-0.034332275	
1740127250994	-0.045318604	
1740127250995	-0.05836487	
1740127250996	-0.06614685	
1740127250997	-0.058135986	
1740127250998	-0.030059814	
1740127250999	0.010528564	
1740127251000	0.08705139	
1740127251001	0.17524719	
1740127251002	0.17311096	
1740127251003	0.15014648	
1740127251004	0.18287659	
1740127251005	0.19958496	
1740127251006	0.19195557	
1740127251007	0.17364502	
1740127251008	0.112838745	
1740127251009	0.06752014	
1740127251010	0.03288269	
1740127251011	-0.03250122	
1740127251012	-0.071640015	
1740127251013	-0.09742737	
1740127251014	-0.13084412	
1740127251015	-0.14167786	
1740127251016	-0.1347351	
1740127251017	-0.13519287	
1740127251018	-0.15289307	
1740127251019	-0.13626099	
1740127251020	-0.1083374	
1740127251021	-0.1058197	
1740127251022	-0.10307312	
1740127251023	-0.08232117	
1740127251024	-0.05531311	
1740127251025	-0.03929138	
1740127251026	-0.03135681	
1740127251027	-0.0077819824	
1740127251028	0.002670288	
1740127251029	0.009002686	
1740127251030	0.030288696	
1740127251031	0.03303528	
1740127251032	0.03929138	
1740127251033	0.060653687	
1740127251034	0.07728577	
1740127251035	0.10482788	
1740127251036	0.11276245	
1740127251037	0.12107849	
1740127251038	0.12901306	
1740127251039	0.1260376	
1740127251040	0.12863159	
1740127251041	0.120773315	
1740127251042	0.09902954	
1740127251043	0.06858826	
1740127251044	0.025253296	
1740127251045	-0.017623901	
1740127251046	-0.04776001	
1740127251047	-0.08255005	
1740127251048	-0.11375427	
1740127251049	-0.13084412	
1740127251050	-0.13465881	
1740127251051	-0.1335907	
1740127251052	-0.14808655	
1740127251053	-0.14320374	
1740127251054	-0.11444092	
1740127251055	-0.100479126	
1740127251056	-0.0718689	
1740127251057	-0.039138794	
1740127251058	-0.021896362	
1740127251059	-0.016098022	
1740127251060	0.002746582	
1740127251061	0.037765503	
1740127251062	0.038604736	
1740127251063	0.018005371	
1740127251064	0.02319336	
1740127251065	0.034484863	
1740127251066	0.0617218	
1740127251067	0.10536194	
1740127251068	0.11795044	
1740127251069	0.08880615	
1740127251070	0.078201294	
1740127251071	0.094070435	
1740127251072	0.07347107	
1740127251073	0.050201416	
1740127251074	0.03555298	
1740127251075	0.0036621094	
1740127251076	-0.012512207	
1740127251077	-0.0035858154	
1740127251078	0.028457642	
1740127251079	0.054397583	
1740127251080	0.035476685	
1740127251081	-0.0011444092	
1740127251082	-0.03288269	
1740127251083	-0.050048828	
1740127251084	-0.06347656	
1740127251085	-0.05859375	
1740127251086	-0.03326416	
1740127251087	-0.021209717	
1740127251088	-0.010910034	
1740127251089	0.015563965	
1740127251090	0.007019043	
1740127251091	-2.2888184E-4	
1740127251092	0.0016021729	
1740127251093	-0.027160645	
1740127251094	-0.035858154	
1740127251095	-0.045394897	
1740127251096	-0.05836487	
1740127251097	-0.07926941	
1740127251098	-0.078201294	
1740127251099	-0.006790161	
1740127251100	0.029449463	
1740127251101	0.034179688	
1740127251102	0.043029785	
1740127251103	0.061645508	
1740127251104	0.11367798	
1740127251105	0.11024475	
1740127251106	0.055541992	
1740127251107	-0.010375977	
1740127251108	-0.053710938	
1740127251109	-0.05470276	
1740127251110	-0.064315796	
1740127251111	-0.051956177	
1740127251112	-0.0554657	
1740127251113	-0.06706238	
1740127251114	-0.034332275	
1740127251115	-0.012283325	
1740127251116	0.0018310547	
1740127251117	-0.025558472	
1740127251118	-0.042800903	
1740127251119	-0.0090789795	
1740127251120	0.008468628	
1740127251121	0.022659302	
1740127251122	0.0340271	
1740127251123	0.02670288	
1740127251124	0.038909912	
1740127251125	0.010986328	
1740127251126	-0.06340027	
1740127251127	-0.08621216	
1740127251128	-0.06690979	
1740127251129	-0.038528442	
1740127251130	0.012664795	
1740127251131	0.023651123	
1740127251132	0.04081726	
1740127251133	0.0566864	
1740127251134	0.067596436	
1740127251135	0.020751953	
1740127251136	-9.918213E-4	
1740127251137	0.02708435	
1740127251138	0.005340576	
1740127251139	0.04547119	
1740127251140	0.079956055	
1740127251141	0.08628845	
1740127251142	0.104904175	
1740127251143	0.07400513	
1740127251144	0.019607544	
1740127251145	0.042419434	
1740127251146	0.09025574	
1740127251147	0.06782532	
1740127251148	0.054779053	
1740127251149	0.032730103	
1740127251150	-0.011291504	
1740127251151	-0.058517456	
1740127251152	-0.09284973	
1740127251153	-0.09780884	
1740127251154	-0.07499695	
1740127251155	-0.06561279	
1740127251156	-0.045394897	
1740127251157	-0.020828247	
1740127251158	-0.04333496	
1740127251159	-0.07896423	
1740127251160	-0.11016846	
1740127251161	-0.11779785	
1740127251162	-0.094833374	
1740127251163	-0.10871887	
1740127251164	-0.06919861	
1740127251165	-0.033187866	
1740127251166	-0.026626587	
1740127251167	9.918213E-4	
1740127251168	-0.006866455	
1740127251169	-0.001449585	
1740127251170	0.033569336	
1740127251171	0.06736755	
1740127251172	0.084609985	
1740127251173	0.06492615	
1740127251174	0.058898926	
1740127251175	0.057678223	
1740127251176	0.04219055	
1740127251177	0.043640137	
1740127251178	0.06576538	
1740127251179	0.08735657	
1740127251180	0.08872986	
1740127251181	0.080718994	
1740127251182	0.061187744	
1740127251183	0.070495605	
1740127251184	0.067596436	
1740127251185	0.024490356	
1740127251186	0.006713867	
1740127251187	-0.007858276	
1740127251188	-0.029830933	
1740127251189	-0.038757324	
1740127251190	-0.051956177	
1740127251191	-0.040130615	
1740127251192	-0.065841675	
1740127251193	-0.13244629	
1740127251194	-0.12809753	
1740127251195	-0.10437012	
1740127251196	-0.10246277	
1740127251197	-0.09918213	
1740127251198	-0.101242065	
1740127251199	-0.05645752	
1740127251200	-0.012664795	
1740127251201	-0.025405884	
1740127251202	0.0034332275	
1740127251203	0.042800903	
1740127251204	0.027008057	
1740127251205	0.012817383	
1740127251206	0.023269653	
1740127251207	0.04600525	
1740127251208	0.040740967	
1740127251209	0.03791809	
1740127251210	0.06752014	
1740127251211	0.057144165	
1740127251212	0.03189087	
1740127251213	0.03540039	
1740127251214	0.058288574	
1740127251215	0.061645508	
1740127251216	0.034866333	
1740127251217	0.047073364	
1740127251218	0.044555664	
1740127251219	0.015258789	
1740127251220	0.04638672	
1740127251221	0.05432129	
1740127251222	0.019073486	
1740127251223	0.007171631	
1740127251224	-0.025634766	
1740127251225	-0.04005432	
1740127251226	-0.010070801	
1740127251227	-0.04058838	
1740127251228	-0.048675537	
1740127251229	0.0011444092	
1740127251230	-0.024642944	
1740127251231	-0.06706238	
1740127251232	-0.080718994	
1740127251233	-0.07644653	
1740127251234	-0.05958557	
1740127251235	-0.06538391	
1740127251236	-0.053024292	
1740127251237	-0.047454834	
1740127251238	-0.018844604	
1740127251239	0.00289917	
1740127251240	-6.1035156E-4	
1740127251241	0.037841797	
1740127251242	0.04928589	
1740127251243	0.06843567	
1740127251244	0.07873535	
1740127251245	0.074157715	
1740127251246	0.10147095	
1740127251247	0.067214966	
1740127251248	0.050811768	
1740127251249	0.090026855	
1740127251250	0.054779053	
1740127251251	0.03189087	
1740127251252	0.02998352	
1740127251253	0.007019043	
1740127251254	0.012741089	
1740127251255	0.0090789795	
1740127251256	-0.0030517578	
1740127251257	-0.030441284	
1740127251258	-0.06500244	
1740127251259	-0.09803772	
1740127251260	-0.07644653	
1740127251261	-0.044326782	
1740127251262	-0.072402954	
1740127251263	-0.052490234	
1740127251264	-0.06637573	
1740127251265	-0.07064819	
1740127251266	-0.05126953	
1740127251267	-0.07286072	
1740127251268	-0.057144165	
1740127251269	-0.050582886	
1740127251270	-0.055007935	
1740127251271	-0.0032806396	
1740127251272	0.015258789	
1740127251273	0.01777649	
1740127251274	0.03303528	
1740127251275	0.055160522	
1740127251276	0.06278992	
1740127251277	0.039367676	
1740127251278	0.033569336	
1740127251279	0.029754639	
1740127251280	0.043182373	
1740127251281	0.046310425	
1740127251282	0.0062561035	
1740127251283	0.01586914	
1740127251284	0.0390625	
1740127251285	0.005264282	
1740127251286	-0.040664673	
1740127251287	-0.04333496	
1740127251288	-0.02784729	
1740127251289	0.00793457	
1740127251290	0.03326416	
1740127251291	0.030517578	
1740127251292	0.04623413	
1740127251293	0.044403076	
1740127251294	0.0415802	
1740127251295	0.043792725	
1740127251296	0.025634766	
1740127251297	-0.035629272	
1740127251298	-0.120391846	
1740127251299	-0.14694214	
1740127251300	-0.12168884	
1740127251301	-0.08255005	
1740127251302	0.0022888184	
1740127251303	0.015945435	
1740127251304	-0.007247925	
1740127251305	0.033569336	
1740127251306	0.04547119	
1740127251307	0.04623413	
1740127251308	0.0365448	
1740127251309	0.034561157	
1740127251310	0.060424805	
1740127251311	0.03288269	
1740127251312	0.01838684	
1740127251313	0.022735596	
1740127251314	0.013656616	
1740127251315	0.029449463	
1740127251316	0.021820068	
1740127251317	0.005569458	
1740127251318	0.018844604	
1740127251319	-0.0064849854	
1740127251320	-0.03768921	
1740127251321	-0.013427734	
1740127251322	0.033569336	
1740127251323	0.02861023	
1740127251324	-0.012435913	
1740127251325	-0.015182495	
1740127251326	-0.048294067	
1740127251327	-0.09719849	
1740127251328	-0.046081543	
1740127251329	0.006713867	
1740127251330	-0.0049591064	
1740127251331	0.00831604	
1740127251332	0.02784729	
1740127251333	0.030670166	
1740127251334	0.018234253	
1740127251335	0.013046265	
1740127251336	0.008087158	
1740127251337	-0.047912598	
1740127251338	-0.087509155	
1740127251339	-0.08895874	
1740127251340	-0.033798218	
1740127251341	0.025863647	
1740127251342	0.041732788	
1740127251343	0.0693512	
1740127251344	0.08956909	
1740127251345	0.07072449	
1740127251346	0.0132751465	
1740127251347	0.00579834	
1740127251348	0.01876831	
1740127251349	0.026855469	
1740127251350	-0.012283325	
1740127251351	-0.14953613	
1740127251352	-0.15518188	
1740127251353	-0.06561279	
1740127251354	0.013427734	
1740127251355	0.09162903	
1740127251356	0.10826111	
1740127251357	0.11741638	
1740127251358	0.049591064	
1740127251359	-0.031661987	
1740127251360	-0.039596558	
1740127251361	-0.081329346	
1740127251362	-0.03929138	
1740127251363	0.010910034	
1740127251364	0.047454834	
1740127251365	0.12519836	
1740127251366	0.07537842	
1740127251367	-0.032958984	
1740127251368	-0.08918762	
1740127251369	-0.06248474	
1740127251370	-0.054779053	
1740127251371	-0.116500854	
1740127251372	-0.06965637	
1740127251373	-0.042800903	
1740127251374	-0.06652832	
1740127251375	-0.061264038	
1740127251376	-0.0048828125	
1740127251377	0.039901733	
1740127251378	0.025024414	
1740127251379	0.10902405	
1740127251380	0.14030457	
1740127251381	0.044555664	
1740127251382	0.013885498	
1740127251383	0.08087158	
1740127251384	0.11802673	
1740127251385	0.08872986	
1740127251386	0.046539307	
1740127251387	-0.015182495	
1740127251388	-0.039901733	
1740127251389	-0.043945312	
1740127251390	-0.036239624	
1740127251391	-0.03868103	
1740127251392	-0.10131836	
1740127251393	-0.10810852	
1740127251394	-0.040893555	
1740127251395	-0.1159668	
1740127251396	-0.14595032	
1740127251397	0.0023651123	
1740127251398	0.053100586	
1740127251399	0.06965637	
1740127251400	0.020751953	
1740127251401	-0.0868988	
1740127251402	-0.027694702	
1740127251403	0.03250122	
1740127251404	0.0466156	
1740127251405	0.0592041	
1740127251406	0.024871826	
1740127251407	0.033569336	
1740127251408	0.10223389	
1740127251409	0.07728577	
1740127251410	-0.060043335	
1740127251411	-0.21362305	
1740127251412	-0.17814636	
1740127251413	0.12107849	
1740127251414	0.24635315	
1740127251415	0.0957489	
1740127251416	0.10513306	
1740127251417	0.25230408	
1740127251418	0.17326355	
1740127251419	-0.0017547607	
1740127251420	-0.024032593	
1740127251421	-0.08277893	
1740127251422	-0.20004272	
1740127251423	-0.18318176	
1740127251424	-0.121536255	
1740127251425	-0.0020599365	
1740127251426	-0.017166138	
1740127251427	-0.106658936	
1740127251428	-0.010070801	
1740127251429	-0.2166748	
1740127251430	-0.37956238	
1740127251431	-0.2294159	
1740127251432	-0.19676208	
1740127251433	0.08079529	
1740127251434	0.36209106	
1740127251435	0.50193787	
1740127251436	0.6404114	
1740127251437	0.4825592	
1740127251438	0.2658081	
1740127251439	-0.01663208	
1740127251440	-0.13717651	
1740127251441	-0.083618164	
1740127251442	-0.24581909	
1740127251443	-0.2848053	
1740127251444	-0.15563965	
1740127251445	-0.097732544	
1740127251446	-0.0894928	
1740127251447	-0.073776245	
1740127251448	-0.0957489	
1740127251449	-0.21400452	
1740127251450	-0.27488708	
1740127251451	-0.21202087	
1740127251452	-0.12916565	
1740127251453	-0.07408142	
1740127251454	0.024261475	
1740127251455	-0.1108551	
1740127251456	-0.46058655	
1740127251457	-0.28396606	
1740127251458	0.11054993	
1740127251459	0.38490295	
1740127251460	0.8401489	
1740127251461	0.8581543	
1740127251462	0.26550293	
1740127251463	0.03555298	
1740127251464	0.25543213	
1740127251465	0.13664246	
1740127251466	-0.08201599	
1740127251467	6.1035156E-4	
1740127251468	0.03616333	
1740127251469	-0.077056885	
1740127251470	-0.12161255	
1740127251471	-0.08369446	
1740127251472	-0.08277893	
1740127251473	-0.102996826	
1740127251474	-0.18470764	
1740127251475	-0.25794983	
1740127251476	-0.21461487	
1740127251477	-0.17250061	
1740127251478	-0.12695312	
1740127251479	-0.08277893	
1740127251480	-0.13626099	
1740127251481	-0.082473755	
1740127251482	0.08026123	
1740127251483	0.02670288	
1740127251484	-0.07827759	
1740127251485	-0.04096985	
1740127251486	0.0541687	
1740127251487	0.1638031	
1740127251488	0.22216797	
1740127251489	0.21903992	
1740127251490	0.16716003	
1740127251491	0.11230469	
1740127251492	0.05706787	
1740127251493	0.015258789	
1740127251494	0.0021362305	
1740127251495	0.02204895	
1740127251496	0.11161804	
1740127251497	0.08552551	
1740127251498	-0.052871704	
1740127251499	-0.03135681	
1740127251500	-0.09307861	
1740127251501	-0.16105652	
1740127251502	-0.026779175	
1740127251503	-0.054626465	
1740127251504	-0.12359619	
1740127251505	-0.080718994	
1740127251506	-0.0630188	
1740127251507	-0.0010681152	
1740127251508	0.020904541	
1740127251509	0.0073242188	
1740127251510	0.011749268	
1740127251511	-0.03715515	
1740127251512	-0.023727417	
1740127251513	0.0019073486	
1740127251514	-0.0090789795	
1740127251515	-0.038986206	
1740127251516	-0.047531128	
1740127251517	0.010910034	
1740127251518	0.042037964	
1740127251519	0.02861023	
1740127251520	0.03303528	
1740127251521	0.029296875	
1740127251522	0.00869751	
1740127251523	0.004501343	
1740127251524	0.002670288	
1740127251525	0.008468628	
1740127251526	0.020446777	
1740127251527	0.002746582	
1740127251528	-0.005645752	
1740127251529	0.0016021729	
1740127251530	-0.002746582	
1740127251531	0.004501343	
1740127251532	0.012054443	
1740127251533	0.00831604	
1740127251534	8.392334E-4	
1740127251535	0.0022125244	
1740127251536	0.0038146973	
1740127251537	-0.0015258789	
1740127251538	0.0020599365	
1740127251539	0.0048828125	
1740127251540	0.010223389	
1740127251541	0.01876831	
1740127251542	0.006942749	
1740127251543	-0.005340576	
1740127251544	-0.00869751	
1740127251545	-0.0047302246	
1740127251546	0.0020599365	
1740127251547	-0.004272461	
1740127251548	0.0049591064	
1740127251549	0.010986328	
1740127251550	0.0	
1740127251551	-0.004425049	
1740127251552	-0.006790161	
1740127251553	-0.009002686	
1740127251554	-0.0015258789	
1740127251555	0.013961792	
1740127251556	0.0023651123	
1740127251557	-0.0020599365	
1740127251558	0.01373291	
1740127251559	0.009002686	
1740127251560	0.0077819824	
1740127251561	0.009994507	
1740127251562	0.0038146973	
1740127251563	0.004119873	
1740127251564	-0.0020599365	
1740127251565	-0.0051879883	
1740127251566	-0.0012969971	
1740127251567	0.0061798096	
1740127251568	0.0046539307	
1740127251569	-0.0037384033	
1740127251570	-5.340576E-4	
1740127251571	-1.5258789E-4	
1740127251572	-0.0035095215	
1740127251573	-0.00541687	
1740127251574	-0.009689331	
1740127251575	-0.0012207031	
1740127251576	0.009689331	
1740127251577	0.004501343	
1740127251578	0.0059509277	
1740127251579	0.0035858154	
1740127251580	-0.008621216	
1740127251581	-0.01159668	
1740127251582	-0.013885498	
1740127251583	-0.018692017	
1740127251584	-0.02029419	
1740127251585	-0.021514893	
1740127251586	-0.022735596	
1740127251587	-0.022277832	
1740127251588	-0.022277832	
1740127251589	-0.025253296	
1740127251590	-0.028839111	
1740127251591	-0.029449463	
1740127251592	-0.025482178	
1740127251593	-0.024108887	
1740127251594	-0.024261475	
1740127251595	-0.02128601	
1740127251596	-0.0146484375	
1740127251597	-0.010910034	
1740127251598	-0.011291504	
1740127251599	-0.009155273	
1740127251600	-0.013046265	
1740127251601	-0.01083374	
1740127251602	-0.002822876	
1740127251603	-0.008773804	
1740127251604	-0.0017547607	
1740127251605	0.016174316	
1740127251606	0.027160645	
1740127251607	0.0440979	
1740127251608	0.0541687	
1740127251609	0.06347656	
1740127251610	0.08018494	
1740127251611	0.09498596	
1740127251612	0.10795593	
1740127251613	0.10795593	
1740127251614	0.101623535	
1740127251615	0.085754395	
1740127251616	0.078811646	
1740127251617	0.05882263	
1740127251618	0.023117065	
1740127251619	0.016021729	
1740127251620	-0.014038086	
1740127251621	-0.021057129	
1740127251622	-0.039978027	
1740127251623	-0.06645203	
1740127251624	-0.05935669	
1740127251625	-0.08377075	
1740127251626	-0.080566406	
1740127251627	-0.09536743	
1740127251628	-0.10131836	
1740127251629	-0.0957489	
1740127251630	-0.102005005	
1740127251631	-0.08201599	
1740127251632	-0.06607056	
1740127251633	-0.040512085	
1740127251634	-0.01914978	
1740127251635	-0.009155273	
1740127251636	0.010299683	
1740127251637	0.017166138	
1740127251638	0.02571106	
1740127251639	0.033569336	
1740127251640	0.031661987	
1740127251641	0.02861023	
1740127251642	0.02166748	
1740127251643	0.019683838	
1740127251644	0.01991272	
1740127251645	0.029830933	
1740127251646	0.047912598	
1740127251647	0.04966736	
1740127251648	0.062561035	
1740127251649	0.067977905	
1740127251650	0.053863525	
1740127251651	0.05859375	
1740127251652	0.05050659	
1740127251653	0.042800903	
1740127251654	0.027694702	
1740127251655	-0.006942749	
1740127251656	-0.038604736	
1740127251657	-0.06034851	
1740127251658	-0.0756073	
1740127251659	-0.086364746	
1740127251660	-0.086135864	
1740127251661	-0.081710815	
1740127251662	-0.079956055	
1740127251663	-0.07293701	
1740127251664	-0.063934326	
1740127251665	-0.05142212	
1740127251666	-0.041809082	
1740127251667	-0.04447937	
1740127251668	-0.0289917	
1740127251669	-0.014266968	
1740127251670	0.004196167	
1740127251671	0.03112793	
1740127251672	0.04890442	
1740127251673	0.06866455	
1740127251674	0.0692749	
1740127251675	0.07583618	
1740127251676	0.072402954	
1740127251677	0.06378174	
1740127251678	0.065078735	
1740127251679	0.033798218	
1740127251680	0.03303528	
1740127251681	0.03463745	
1740127251682	0.018463135	
1740127251683	0.027389526	
1740127251684	0.022659302	
1740127251685	0.008544922	
1740127251686	-0.0024414062	
1740127251687	0.0035095215	
1740127251688	0.003967285	
1740127251689	0.0019073486	
1740127251690	9.918213E-4	
1740127251691	-0.00541687	
1740127251692	-0.012664795	
1740127251693	-0.018310547	
1740127251694	-0.019683838	
1740127251695	-0.018692017	
1740127251696	-0.023880005	
1740127251697	-0.023269653	
1740127251698	-0.025177002	
1740127251699	-0.029373169	
1740127251700	-0.020523071	
1740127251701	-0.0132751465	
1740127251702	-0.009613037	
1740127251703	-0.0038909912	
1740127251704	0.008239746	
1740127251705	0.015411377	
1740127251706	0.012588501	
1740127251707	0.0021362305	
1740127251708	-0.014953613	
1740127251709	-0.02281189	
1740127251710	-0.03036499	
1740127251711	-0.031967163	
1740127251712	-0.023651123	
1740127251713	-0.021057129	
1740127251714	-0.018997192	
1740127251715	-0.00831604	
1740127251716	0.0030517578	
1740127251717	0.018997192	
1740127251718	0.028915405	
1740127251719	0.024490356	
1740127251720	0.019226074	
1740127251721	0.012817383	
1740127251722	0.011672974	
1740127251723	0.006866455	
1740127251724	-0.005874634	
1740127251725	-0.0074005127	
1740127251726	-0.012664795	
1740127251727	-0.006790161	
1740127251728	-7.6293945E-5	
1740127251729	-0.012817383	
1740127251730	-0.0031280518	
1740127251731	0.001449585	
1740127251732	-0.011062622	
1740127251733	-0.0063323975	
1740127251734	-0.0024414062	
1740127251735	0.013122559	
1740127251736	0.024414062	
1740127251737	0.028381348	
1740127251738	0.035629272	
1740127251739	0.027389526	
1740127251740	0.018310547	
1740127251741	0.0015258789	
1740127251742	-0.007247925	
1740127251743	0.0038909912	
1740127251744	0.010070801	
1740127251745	0.016174316	
1740127251746	0.014419556	
1740127251747	0.0022125244	
1740127251748	-0.002822876	
1740127251749	0.0025177002	
1740127251750	0.004043579	
1740127251751	-0.0066375732	
1740127251752	-0.020523071	
1740127251753	-0.023498535	
1740127251754	-0.02204895	
1740127251755	-0.038909912	
1740127251756	-0.03791809	
1740127251757	-0.034332275	
1740127251758	-0.04058838	
1740127251759	-0.044174194	
1740127251760	-0.036621094	
1740127251761	-0.021209717	
1740127251762	-0.018157959	
1740127251763	-0.007171631	
1740127251764	0.01449585	
1740127251765	0.019454956	
1740127251766	0.030059814	
1740127251767	0.03578186	
1740127251768	0.029678345	
1740127251769	0.026473999	
1740127251770	0.017929077	
1740127251771	0.01625061	
1740127251772	0.025024414	
1740127251773	0.022125244	
1740127251774	0.029220581	
1740127251775	0.026931763	
1740127251776	0.03250122	
1740127251777	0.034713745	
1740127251778	0.020828247	
1740127251779	0.027160645	
1740127251780	0.03425598	
1740127251781	0.04219055	
1740127251782	0.05088806	
1740127251783	0.047073364	
1740127251784	0.039367676	
1740127251785	0.030441284	
1740127251786	0.02067566	
1740127251787	0.014953613	
1740127251788	-0.002670288	
1740127251789	-0.020141602	
1740127251790	-0.039138794	
1740127251791	-0.06011963	
1740127251792	-0.07537842	
1740127251793	-0.09513855	
1740127251794	-0.10055542	
1740127251795	-0.110321045	
1740127251796	-0.13191223	
1740127251797	-0.12893677	
1740127251798	-0.120773315	
1740127251799	-0.11138916	
1740127251800	-0.08728027	
1740127251801	-0.06919861	
1740127251802	-0.043258667	
1740127251803	-0.017242432	
1740127251804	3.0517578E-4	
1740127251805	0.022201538	
1740127251806	0.042877197	
1740127251807	0.06324768	
1740127251808	0.078430176	
1740127251809	0.09590149	
1740127251810	0.10185242	
1740127251811	0.10437012	
1740127251812	0.10002136	
1740127251813	0.09788513	
1740127251814	0.09979248	
1740127251815	0.07247925	
1740127251816	0.062942505	
1740127251817	0.054779053	
1740127251818	0.036849976	
1740127251819	0.039901733	
1740127251820	0.025558472	
1740127251821	0.018081665	
1740127251822	0.011291504	
1740127251823	7.6293945E-5	
1740127251824	-0.0038909912	
1740127251825	-0.0064849854	
1740127251826	-0.013198853	
1740127251827	-0.025634766	
1740127251828	-0.031967163	
1740127251829	-0.036087036	
1740127251830	-0.038986206	
1740127251831	-0.036010742	
1740127251832	-0.040283203	
1740127251833	-0.045013428	
1740127251834	-0.0491333	
1740127251835	-0.04798889	
1740127251836	-0.04699707	
1740127251837	-0.045700073	
1740127251838	-0.03791809	
1740127251839	-0.03883362	
1740127251840	-0.04058838	
1740127251841	-0.036621094	
1740127251842	-0.026016235	
1740127251843	-0.0050354004	
1740127251844	0.0104522705	
1740127251845	0.018692017	
1740127251846	0.044403076	
1740127251847	0.06011963	
1740127251848	0.06591797	
1740127251849	0.079574585	
1740127251850	0.08529663	
1740127251851	0.083847046	
1740127251852	0.08628845	
1740127251853	0.075912476	
1740127251854	0.06416321	
1740127251855	0.06538391	
1740127251856	0.045776367	
1740127251857	0.029754639	
1740127251858	0.012817383	
1740127251859	-0.0061798096	
1740127251860	-0.013046265	
1740127251861	-0.028457642	
1740127251862	-0.049362183	
1740127251863	-0.06271362	
1740127251864	-0.069885254	
1740127251865	-0.07003784	
1740127251866	-0.07171631	
1740127251867	-0.08148193	
1740127251868	-0.09140015	
1740127251869	-0.10055542	
1740127251870	-0.10765076	
1740127251871	-0.11451721	
1740127251872	-0.116500854	
1740127251873	-0.096206665	
1740127251874	-0.07598877	
1740127251875	-0.060806274	
1740127251876	-0.05241394	
1740127251877	-0.030593872	
1740127251878	-0.00831604	
1740127251879	0.009841919	
1740127251880	0.027694702	
1740127251881	0.034103394	
1740127251882	0.061798096	
1740127251883	0.07324219	
1740127251884	0.0743103	
1740127251885	0.0831604	
1740127251886	0.08415222	
1740127251887	0.08293152	
1740127251888	0.08354187	
1740127251889	0.083618164	
1740127251890	0.066604614	
1740127251891	0.061416626	
1740127251892	0.05455017	
1740127251893	0.04272461	
1740127251894	0.042419434	
1740127251895	0.031051636	
1740127251896	0.018463135	
1740127251897	0.015182495	
1740127251898	-0.0033569336	
1740127251899	-0.018539429	
1740127251900	-0.032806396	
1740127251901	-0.052108765	
1740127251902	-0.04814148	
1740127251903	-0.047912598	
1740127251904	-0.054855347	
1740127251905	-0.04875183	
1740127251906	-0.050125122	
1740127251907	-0.040359497	
1740127251908	-0.021896362	
1740127251909	-0.0011444092	
1740127251910	0.024871826	
1740127251911	0.05027771	
1740127251912	0.07766724	
1740127251913	0.0769043	
1740127251914	0.07034302	
1740127251915	0.07522583	
1740127251916	0.06752014	
1740127251917	0.06881714	
1740127251918	0.066223145	
1740127251919	0.046844482	
1740127251920	0.047454834	
1740127251921	0.04524231	
1740127251922	0.01625061	
1740127251923	-0.008773804	
1740127251924	-0.034179688	
1740127251925	-0.056915283	
1740127251926	-0.071258545	
1740127251927	-0.085754395	
1740127251928	-0.09208679	
1740127251929	-0.09887695	
1740127251930	-0.1058197	
1740127251931	-0.10871887	
1740127251932	-0.09803772	
1740127251933	-0.09399414	
1740127251934	-0.09017944	
1740127251935	-0.06881714	
1740127251936	-0.048980713	
1740127251937	-0.042114258	
1740127251938	-0.03074646	
1740127251939	-0.016860962	
1740127251940	3.0517578E-4	
1740127251941	0.016021729	
1740127251942	0.027542114	
1740127251943	0.034103394	
1740127251944	0.04547119	
1740127251945	0.050201416	
1740127251946	0.058670044	
1740127251947	0.06637573	
1740127251948	0.049362183	
1740127251949	0.047531128	
1740127251950	0.049972534	
1740127251951	0.043258667	
1740127251952	0.05340576	
1740127251953	0.06149292	
1740127251954	0.060653687	
1740127251955	0.06904602	
1740127251956	0.05783081	
1740127251957	0.03540039	
1740127251958	0.028915405	
1740127251959	0.010986328	
1740127251960	-0.009155273	
1740127251961	-0.011978149	
1740127251962	-0.017929077	
1740127251963	-0.02746582	
1740127251964	-0.03364563	
1740127251965	-0.03425598	
1740127251966	-0.021820068	
1740127251967	-0.0037384033	
1740127251968	0.004425049	
1740127251969	-0.004043579	
1740127251970	-0.015106201	
1740127251971	-0.030975342	
1740127251972	-0.04837036	
1740127251973	-0.046844482	
1740127251974	-0.048217773	
1740127251975	-0.06362915	
1740127251976	-0.067977905	
1740127251977	-0.07751465	
1740127251978	-0.08483887	
1740127251979	-0.06858826	
1740127251980	-0.03692627	
1740127251981	0.029678345	
1740127251982	0.046081543	
1740127251983	-0.005493164	
1740127251984	0.012207031	
1740127251985	0.06362915	
1740127251986	0.047454834	
1740127251987	0.026473999	
1740127251988	0.046691895	
1740127251989	0.059661865	
1740127251990	0.05104065	
1740127251991	0.018615723	
1740127251992	5.340576E-4	
1740127251993	0.0016784668	
1740127251994	-0.0030517578	
1740127251995	0.008239746	
1740127251996	0.0064086914	
1740127251997	-0.005340576	
1740127251998	-0.012893677	
1740127251999	-0.017242432	
1740127252000	-0.011444092	
1740127252001	-0.01876831	
1740127252002	-0.010604858	
1740127252003	0.013427734	
1740127252004	0.0074768066	
1740127252005	0.0035095215	
1740127252006	0.007095337	
1740127252007	-0.005569458	
1740127252008	0.016174316	
1740127252009	0.05317688	
1740127252010	0.0554657	
1740127252011	0.07865906	
1740127252012	0.082855225	
1740127252013	0.06858826	
1740127252014	0.08514404	
1740127252015	0.05569458	
1740127252016	0.02670288	
1740127252017	0.037078857	
1740127252018	0.037460327	
1740127252019	0.012130737	
1740127252020	-0.008926392	
1740127252021	-0.0146484375	
1740127252022	-0.043411255	
1740127252023	-0.057907104	
1740127252024	-0.06591797	
1740127252025	-0.084228516	
1740127252026	-0.11703491	
1740127252027	-0.12893677	
1740127252028	-0.122680664	
1740127252029	-0.12702942	
1740127252030	-0.11116028	
1740127252031	-0.117111206	
1740127252032	-0.11520386	
1740127252033	-0.063323975	
1740127252034	-0.007095337	
1740127252035	0.062332153	
1740127252036	0.10475159	
1740127252037	0.1222229	
1740127252038	0.1134491	
1740127252039	0.09284973	
1740127252040	0.09162903	
1740127252041	0.078048706	
1740127252042	0.07324219	
1740127252043	0.061798096	
1740127252044	0.03540039	
1740127252045	-0.0024414062	
1740127252046	-0.02418518	
1740127252047	-0.029220581	
1740127252048	-0.045776367	
1740127252049	-0.047836304	
1740127252050	-0.040130615	
1740127252051	-0.047531128	
1740127252052	-0.04585266	
1740127252053	-0.03715515	
1740127252054	-0.052947998	
1740127252055	-0.049057007	
1740127252056	-0.030441284	
1740127252057	-0.031967163	
1740127252058	-0.026321411	
1740127252059	-0.013961792	
1740127252060	-0.0016784668	
1740127252061	0.0019073486	
1740127252062	6.866455E-4	
1740127252063	0.0061035156	
1740127252064	0.011672974	
1740127252065	0.015258789	
1740127252066	0.010223389	
1740127252067	0.0011444092	
1740127252068	0.0049591064	
1740127252069	0.037765503	
1740127252070	0.06820679	
1740127252071	0.077438354	
1740127252072	0.11993408	
1740127252073	0.1701355	
1740127252074	0.19920349	
1740127252075	0.22743225	
1740127252076	0.23582458	
1740127252077	0.21156311	
1740127252078	0.1739502	
1740127252079	0.1348877	
1740127252080	0.065078735	
1740127252081	-0.04951477	
1740127252082	-0.17486572	
1740127252083	-0.25245667	
1740127252084	-0.29296875	
1740127252085	-0.3112793	
1740127252086	-0.28541565	
1740127252087	-0.29083252	
1740127252088	-0.25733948	
1740127252089	-0.19882202	
1740127252090	-0.16998291	
1740127252091	-0.1335907	
1740127252092	-0.10246277	
1740127252093	-0.106277466	
1740127252094	-0.11047363	
1740127252095	-0.07499695	
1740127252096	-0.023117065	
1740127252097	0.013656616	
1740127252098	0.06889343	
1740127252099	0.15174866	
1740127252100	0.15686035	
1740127252101	0.14755249	
1740127252102	0.16571045	
1740127252103	0.1387024	
1740127252104	0.18287659	
1740127252105	0.25665283	
1740127252106	0.2344513	
1740127252107	0.19264221	
1740127252108	0.12649536	
1740127252109	0.019454956	
1740127252110	-0.041732788	
1740127252111	-0.018234253	
1740127252112	0.027389526	
1740127252113	0.04676819	
1740127252114	0.09315491	
1740127252115	0.08529663	
1740127252116	0.021362305	
1740127252117	0.03227234	
1740127252118	0.008926392	
1740127252119	-0.027008057	
1740127252120	-0.022277832	
1740127252121	-0.08811951	
1740127252122	-0.09750366	
1740127252123	-0.06523132	
1740127252124	-0.10871887	
1740127252125	-0.14564514	
1740127252126	-0.14701843	
1740127252127	-0.06629944	
1740127252128	-0.011138916	
1740127252129	-0.017700195	
1740127252130	-0.023498535	
1740127252131	-0.12237549	
1740127252132	-0.19927979	
1740127252133	-0.15853882	
1740127252134	-0.094680786	
1740127252135	-0.047912598	
1740127252136	-0.026016235	
1740127252137	0.013122559	
1740127252138	0.07392883	
1740127252139	0.09803772	
1740127252140	0.0894928	
1740127252141	0.0920105	
1740127252142	0.15457153	
1740127252143	0.18791199	
1740127252144	0.17211914	
1740127252145	0.14343262	
1740127252146	0.1083374	
1740127252147	0.096206665	
1740127252148	0.08468628	
1740127252149	0.092163086	
1740127252150	0.051345825	
1740127252151	0.03944397	
1740127252152	0.0059509277	
1740127252153	-0.083236694	
1740127252154	-0.10398865	
1740127252155	-0.10848999	
1740127252156	-0.100479126	
1740127252157	-0.050964355	
1740127252158	-0.069885254	
1740127252159	-0.15106201	
1740127252160	-0.17593384	
1740127252161	-0.11924744	
1740127252162	-0.1360321	
1740127252163	-0.17234802	
1740127252164	-0.10017395	
1740127252165	-0.008468628	
1740127252166	0.0365448	
1740127252167	6.1035156E-4	
1740127252168	-0.022583008	
1740127252169	-0.043258667	
1740127252170	-0.059432983	
1740127252171	0.009918213	
1740127252172	0.048294067	
1740127252173	0.046539307	
1740127252174	0.02998352	
1740127252175	0.007858276	
1740127252176	0.019836426	
1740127252177	0.031814575	
1740127252178	0.082855225	
1740127252179	0.09094238	
1740127252180	0.09101868	
1740127252181	0.13557434	
1740127252182	0.13000488	
1740127252183	0.1235199	
1740127252184	0.08880615	
1740127252185	0.0806427	
1740127252186	0.1348877	
1740127252187	0.15327454	
1740127252188	0.123291016	
1740127252189	0.056915283	
1740127252190	-0.010604858	
1740127252191	-0.05393982	
1740127252192	-0.0491333	
1740127252193	-0.019989014	
1740127252194	-0.0440979	
1740127252195	-0.05279541	
1740127252196	-0.06500244	
1740127252197	-0.10910034	
1740127252198	-0.12542725	
1740127252199	-0.154953	
1740127252200	-0.16929626	
1740127252201	-0.12802124	
1740127252202	-0.09918213	
1740127252203	-0.11062622	
1740127252204	-0.12794495	
1740127252205	-0.11795044	
1740127252206	-0.06866455	
1740127252207	-0.023651123	
1740127252208	0.006866455	
1740127252209	0.044708252	
1740127252210	0.051651	
1740127252211	0.05203247	
1740127252212	0.011978149	
1740127252213	-0.014801025	
1740127252214	0.06034851	
1740127252215	0.08224487	
1740127252216	0.09643555	
1740127252217	0.12825012	
1740127252218	0.078430176	
1740127252219	0.0605011	
1740127252220	0.062332153	
1740127252221	0.043563843	
1740127252222	0.05126953	
1740127252223	0.04928589	
1740127252224	0.04928589	
1740127252225	0.0605011	
1740127252226	0.04371643	
1740127252227	0.013885498	
1740127252228	0.036468506	
1740127252229	0.041122437	
1740127252230	-0.044555664	
1740127252231	-0.055160522	
1740127252232	-0.0064849854	
1740127252233	-0.036697388	
1740127252234	-0.0466156	
1740127252235	1.5258789E-4	
1740127252236	0.0073242188	
1740127252237	-0.037078857	
1740127252238	-0.07980347	
1740127252239	-0.059051514	
1740127252240	-0.040740967	
1740127252241	-0.037384033	
1740127252242	0.0037384033	
1740127252243	-0.0064849854	
1740127252244	-0.01739502	
1740127252245	-0.017929077	
1740127252246	-0.050430298	
1740127252247	-0.010604858	
1740127252248	-0.026016235	
1740127252249	-0.044631958	
1740127252250	-0.0017547607	
1740127252251	-0.020599365	
1740127252252	0.005340576	
1740127252253	0.021133423	
1740127252254	-0.05142212	
1740127252255	-0.10971069	
1740127252256	-0.08796692	
1740127252257	-0.013961792	
1740127252258	0.067214966	
1740127252259	0.10185242	
1740127252260	0.08628845	
1740127252261	0.07217407	
1740127252262	0.06454468	
1740127252263	0.099105835	
1740127252264	0.09033203	
1740127252265	0.05104065	
1740127252266	0.099487305	
1740127252267	0.08255005	
1740127252268	-0.00793457	
1740127252269	0.03616333	
1740127252270	0.052490234	
1740127252271	-0.020141602	
1740127252272	-0.022583008	
1740127252273	0.03967285	
1740127252274	-0.06866455	
1740127252275	-0.10803223	
1740127252276	-0.0340271	
1740127252277	-0.039367676	
1740127252278	-0.042037964	
1740127252279	-0.0743103	
1740127252280	-0.13084412	
1740127252281	-0.097579956	
1740127252282	-0.08407593	
1740127252283	-0.07789612	
1740127252284	0.0022888184	
1740127252285	0.038757324	
1740127252286	-0.021591187	
1740127252287	0.021362305	
1740127252288	-0.021362305	
1740127252289	-0.14175415	
1740127252290	-0.06530762	
1740127252291	0.032043457	
1740127252292	0.02128601	
1740127252293	0.03829956	
1740127252294	0.058517456	
1740127252295	0.026245117	
1740127252296	0.032348633	
1740127252297	0.09124756	
1740127252298	0.112838745	
1740127252299	0.11024475	
1740127252300	0.1133728	
1740127252301	0.07873535	
1740127252302	0.012817383	
1740127252303	-0.0036621094	
1740127252304	0.043792725	
1740127252305	0.0060272217	
1740127252306	-0.052108765	
1740127252307	-0.022888184	
1740127252308	-0.032424927	
1740127252309	-0.034713745	
1740127252310	-0.074539185	
1740127252311	-0.061187744	
1740127252312	0.037002563	
1740127252313	-0.01586914	
1740127252314	-0.044021606	
1740127252315	-0.03112793	
1740127252316	-0.058670044	
1740127252317	0.015945435	
1740127252318	-0.032958984	
1740127252319	-0.11810303	
1740127252320	-0.04600525	
1740127252321	3.8146973E-4	
1740127252322	0.003967285	
1740127252323	-0.025939941	
1740127252324	0.020904541	
1740127252325	0.0642395	
1740127252326	-0.014724731	
1740127252327	5.340576E-4	
1740127252328	0.033798218	
1740127252329	0.06744385	
1740127252330	0.09437561	
1740127252331	0.01449585	
1740127252332	-0.055007935	
1740127252333	-0.09880066	
1740127252334	0.005645752	
1740127252335	0.14480591	
1740127252336	0.037231445	
1740127252337	-0.09170532	
1740127252338	-0.067977905	
1740127252339	-0.019073486	
1740127252340	0.018692017	
1740127252341	0.05897522	
1740127252342	0.08850098	
1740127252343	0.092544556	
1740127252344	0.061798096	
1740127252345	0.07072449	
1740127252346	0.05088806	
1740127252347	-0.026473999	
1740127252348	-0.004501343	
1740127252349	-0.009918213	
1740127252350	-0.07331848	
1740127252351	-0.083618164	
1740127252352	-0.05203247	
1740127252353	-0.028457642	
1740127252354	-0.08125305	
1740127252355	-0.10177612	
1740127252356	-0.029449463	
1740127252357	0.05836487	
1740127252358	0.112457275	
1740127252359	0.14228821	
1740127252360	0.0957489	
1740127252361	-0.02784729	
1740127252362	-0.15182495	
1740127252363	-0.18585205	
1740127252364	-0.09750366	
1740127252365	-0.046081543	
1740127252366	-0.012588501	
1740127252367	-0.009613037	
1740127252368	0.029296875	
1740127252369	0.14137268	
1740127252370	0.0667572	
1740127252371	-0.027999878	
1740127252372	0.038986206	
1740127252373	0.10093689	
1740127252374	0.06561279	
1740127252375	0.01083374	
1740127252376	0.016098022	
1740127252377	0.02357483	
1740127252378	-0.037841797	
1740127252379	-0.046691895	
1740127252380	-0.025787354	
1740127252381	-0.13580322	
1740127252382	-0.048828125	
1740127252383	0.11291504	
1740127252384	-0.012359619	
1740127252385	0.010147095	
1740127252386	0.093688965	
1740127252387	-0.015716553	
1740127252388	-0.03829956	
1740127252389	-0.0048065186	
1740127252390	0.009613037	
1740127252391	-0.0029754639	
1740127252392	-0.07362366	
1740127252393	-0.075531006	
1740127252394	-0.056152344	
1740127252395	-0.13275146	
1740127252396	-0.06248474	
1740127252397	0.07400513	
1740127252398	0.0717926	
1740127252399	0.108795166	
1740127252400	0.07575989	
1740127252401	-0.008773804	
1740127252402	0.011062622	
1740127252403	0.010375977	
1740127252404	0.0132751465	
1740127252405	0.070877075	
1740127252406	0.12123108	
1740127252407	0.07270813	
1740127252408	-0.10070801	
1740127252409	-0.24559021	
1740127252410	-0.10803223	
1740127252411	0.05340576	
1740127252412	-0.03768921	
1740127252413	-0.10017395	
1740127252414	-0.15800476	
1740127252415	-0.18661499	
1740127252416	-0.10070801	
1740127252417	0.010528564	
1740127252418	0.256958	
1740127252419	0.3791809	
1740127252420	0.27252197	
1740127252421	0.27244568	
1740127252422	0.16365051	
1740127252423	-0.03929138	
1740127252424	-0.04852295	
1740127252425	-0.084609985	
1740127252426	-0.12069702	
1740127252427	-0.062408447	
1740127252428	-0.084609985	
1740127252429	-0.075683594	
1740127252430	0.0031280518	
1740127252431	-0.034713745	
1740127252432	-0.039367676	
1740127252433	-0.02357483	
1740127252434	-0.13511658	
1740127252435	-0.10864258	
1740127252436	-0.010147095	
1740127252437	-0.061569214	
1740127252438	-0.064468384	
1740127252439	0.0038146973	
1740127252440	0.03189087	
1740127252441	0.034561157	
1740127252442	0.06744385	
1740127252443	0.101623535	
1740127252444	0.022125244	
1740127252445	-0.021514893	
1740127252446	0.0010681152	
1740127252447	-0.031967163	
1740127252448	-0.005645752	
1740127252449	0.015487671	
1740127252450	0.019836426	
1740127252451	0.019454956	
1740127252452	-0.083236694	
1740127252453	-0.09750366	
1740127252454	0.0104522705	
1740127252455	0.023117065	
1740127252456	9.1552734E-4	
1740127252457	0.07850647	
1740127252458	0.08117676	
1740127252459	0.002746582	
1740127252460	0.038146973	
1740127252461	0.042114258	
1740127252462	-0.014572144	
1740127252463	0.030593872	
1740127252464	0.085754395	
1740127252465	0.052871704	
1740127252466	0.020599365	
1740127252467	-0.019302368	
1740127252468	-0.047225952	
1740127252469	-0.009002686	
1740127252470	-0.01121521	
1740127252471	-0.02128601	
1740127252472	-0.015106201	
1740127252473	-0.022354126	
1740127252474	-0.004043579	
1740127252475	-0.0035095215	
1740127252476	-0.009841919	
1740127252477	-0.0061035156	
1740127252478	-0.012283325	
1740127252479	-0.019989014	
1740127252480	-0.031661987	
1740127252481	-0.005645752	
1740127252482	0.030517578	
1740127252483	0.03364563	
1740127252484	-0.0062561035	
1740127252485	-0.020370483	
1740127252486	-0.005569458	
1740127252487	-0.006713867	
1740127252488	-0.014953613	
1740127252489	-0.012969971	
1740127252490	-0.0074768066	
1740127252491	-0.012435913	
1740127252492	-0.011520386	
1740127252493	-0.021591187	
1740127252494	-0.014419556	
1740127252495	0.0065612793	
1740127252496	0.005722046	
1740127252497	0.013046265	
1740127252498	0.013046265	
1740127252499	0.004043579	
1740127252500	4.5776367E-4	
1740127252501	-0.0048065186	
1740127252502	0.0010681152	
1740127252503	0.0037384033	
1740127252504	-0.0037384033	
1740127252505	-0.0016784668	
1740127252506	-0.0030517578	
1740127252507	-0.011444092	
1740127252508	-2.2888184E-4	
1740127252509	0.008468628	
1740127252510	-0.005493164	
1740127252511	-0.0104522705	
1740127252512	0.0025177002	
1740127252513	0.020904541	
1740127252514	0.016784668	
1740127252515	0.0017547607	
1740127252516	4.5776367E-4	
1740127252517	0.0049591064	
1740127252518	0.012893677	
1740127252519	0.004119873	
1740127252520	-0.01586914	
1740127252521	-0.005493164	
1740127252522	-3.0517578E-4	
1740127252523	-0.012588501	
1740127252524	-0.019302368	
1740127252525	-0.030822754	
1740127252526	0.0022888184	
1740127252527	0.03173828	
1740127252528	0.016098022	
1740127252529	0.009460449	
1740127252530	-9.1552734E-4	
1740127252531	0.0073242188	
1740127252532	0.012435913	
1740127252533	-5.340576E-4	
1740127252534	0.002746582	
1740127252535	7.6293945E-5	
1740127252536	6.1035156E-4	
1740127252537	0.011749268	
1740127252538	0.0076293945	
1740127252539	-0.0031280518	
1740127252540	-0.008850098	
1740127252541	-0.0022125244	
1740127252542	0.0061035156	
1740127252543	0.005340576	
1740127252544	0.0032043457	
1740127252545	0.0017547607	
1740127252546	5.340576E-4	
1740127252547	0.0033569336	
1740127252548	-0.0017547607	
1740127252549	-7.6293945E-5	
1740127252550	0.0011444092	
1740127252551	-0.01083374	
1740127252552	-0.017318726	
1740127252553	-0.01121521	
1740127252554	-0.001373291	
1740127252555	-0.0064086914	
1740127252556	-0.012817383	
1740127252557	-0.01411438	
1740127252558	-0.01586914	
1740127252559	-0.009613037	
1740127252560	-0.011367798	
1740127252561	-0.018157959	
1740127252562	-0.019073486	
1740127252563	-0.011444092	
1740127252564	-0.011978149	
1740127252565	-0.012207031	
1740127252566	-0.010299683	
1740127252567	-0.00793457	
1740127252568	0.0023651123	
1740127252569	0.005569458	
1740127252570	0.012130737	
1740127252571	0.0037384033	
1740127252572	-0.020141602	
1740127252573	-0.024719238	
1740127252574	-0.016555786	
1740127252575	-0.021133423	
1740127252576	-0.033950806	
1740127252577	-0.022125244	
1740127252578	-0.016174316	
1740127252579	-0.0073242188	
1740127252580	0.011367798	
1740127252581	0.044555664	
1740127252582	0.101623535	
1740127252583	0.1437378	
1740127252584	0.15159607	
1740127252585	0.14732361	
1740127252586	0.13824463	
1740127252587	0.13031006	
1740127252588	0.10696411	
1740127252589	0.072784424	
1740127252590	0.04425049	
1740127252591	0.0032806396	
1740127252592	-0.034484863	
1740127252593	-0.06744385	
1740127252594	-0.09567261	
1740127252595	-0.1184082	
1740127252596	-0.131073	
1740127252597	-0.13572693	
1740127252598	-0.13084412	
1740127252599	-0.119400024	
1740127252600	-0.112838745	
1740127252601	-0.08918762	
1740127252602	-0.080947876	
1740127252603	-0.06790161	
1740127252604	-0.051193237	
1740127252605	-0.044937134	
1740127252606	-0.005264282	
1740127252607	0.028076172	
1740127252608	0.030059814	
1740127252609	0.029907227	
1740127252610	0.022888184	
1740127252611	0.02029419	
1740127252612	0.028152466	
1740127252613	0.032043457	
1740127252614	0.04371643	
1740127252615	0.059280396	
1740127252616	0.073776245	
1740127252617	0.08102417	
1740127252618	0.094070435	
1740127252619	0.10429382	
1740127252620	0.10307312	
1740127252621	0.10643005	
1740127252622	0.113983154	
1740127252623	0.10284424	
1740127252624	0.06790161	
1740127252625	0.03593445	
1740127252626	-0.002822876	
1740127252627	-0.054092407	
1740127252628	-0.092544556	
1740127252629	-0.115737915	
1740127252630	-0.13587952	
1740127252631	-0.13839722	
1740127252632	-0.13511658	
1740127252633	-0.1448822	
1740127252634	-0.13305664	
1740127252635	-0.13053894	
1740127252636	-0.112838745	
1740127252637	-0.08300781	
1740127252638	-0.08140564	
1740127252639	-0.054779053	
1740127252640	-0.03753662	
1740127252641	-0.027770996	
1740127252642	0.0045776367	
1740127252643	0.025253296	
1740127252644	0.05340576	
1740127252645	0.08300781	
1740127252646	0.09498596	
1740127252647	0.110321045	
1740127252648	0.11703491	
1740127252649	0.12527466	
1740127252650	0.11871338	
1740127252651	0.11123657	
1740127252652	0.0868988	
1740127252653	0.072784424	
1740127252654	0.058517456	
1740127252655	0.045700073	
1740127252656	0.050354004	
1740127252657	0.030822754	
1740127252658	0.029067993	
1740127252659	0.025863647	
1740127252660	2.2888184E-4	
1740127252661	-0.002670288	
1740127252662	-0.0104522705	
1740127252663	-0.015335083	
1740127252664	-0.014877319	
1740127252665	-0.020370483	
1740127252666	-0.028457642	
1740127252667	-0.039138794	
1740127252668	-0.048675537	
1740127252669	-0.050811768	
1740127252670	-0.047836304	
1740127252671	-0.05142212	
1740127252672	-0.05493164	
1740127252673	-0.047531128	
1740127252674	-0.049591064	
1740127252675	-0.0289917	
1740127252676	-0.020370483	
1740127252677	-0.025863647	
1740127252678	-0.020523071	
1740127252679	-0.025482178	
1740127252680	-0.024032593	
1740127252681	-0.015792847	
1740127252682	-6.1035156E-4	
1740127252683	0.01449585	
1740127252684	0.021820068	
1740127252685	0.023269653	
1740127252686	0.021743774	
1740127252687	0.009231567	
1740127252688	-0.01373291	
1740127252689	-0.029754639	
1740127252690	-0.03288269	
1740127252691	-0.02708435	
1740127252692	-0.008621216	
1740127252693	0.011672974	
1740127252694	0.033950806	
1740127252695	0.058670044	
1740127252696	0.08392334	
1740127252697	0.103302	
1740127252698	0.10787964	
1740127252699	0.10482788	
1740127252700	0.08529663	
1740127252701	0.06645203	
1740127252702	0.049819946	
1740127252703	0.026016235	
1740127252704	0.007019043	
1740127252705	-0.010757446	
1740127252706	-0.024261475	
1740127252707	-0.04425049	
1740127252708	-0.0705719	
1740127252709	-0.07598877	
1740127252710	-0.07850647	
1740127252711	-0.08811951	
1740127252712	-0.0920105	
1740127252713	-0.09391785	
1740127252714	-0.086517334	
1740127252715	-0.07644653	
1740127252716	-0.06958008	
1740127252717	-0.05378723	
1740127252718	-0.042266846	
1740127252719	-0.036697388	
1740127252720	-0.011444092	
1740127252721	0.012359619	
1740127252722	0.020828247	
1740127252723	0.026855469	
1740127252724	0.02861023	
1740127252725	0.029220581	
1740127252726	0.034179688	
1740127252727	0.038909912	
1740127252728	0.0365448	
1740127252729	0.03555298	
1740127252730	0.04585266	
1740127252731	0.05142212	
1740127252732	0.04371643	
1740127252733	0.031967163	
1740127252734	0.029373169	
1740127252735	0.03692627	
1740127252736	0.041656494	
1740127252737	0.04096985	
1740127252738	0.030822754	
1740127252739	0.022506714	
1740127252740	0.028533936	
1740127252741	0.018234253	
1740127252742	0.011291504	
1740127252743	0.009002686	
1740127252744	0.006713867	
1740127252745	0.0077819824	
1740127252746	-4.5776367E-4	
1740127252747	0.008544922	
1740127252748	0.012664795	
1740127252749	0.02067566	
1740127252750	0.020828247	
1740127252751	0.014266968	
1740127252752	0.014038086	
1740127252753	-0.012969971	
1740127252754	-0.018844604	
1740127252755	-0.032730103	
1740127252756	-0.04737854	
1740127252757	-0.052642822	
1740127252758	-0.06958008	
1740127252759	-0.064468384	
1740127252760	-0.084228516	
1740127252761	-0.07469177	
1740127252762	-0.06782532	
1740127252763	-0.08155823	
1740127252764	-0.060424805	
1740127252765	-0.044403076	
1740127252766	-0.05744934	
1740127252767	-0.031280518	
1740127252768	-0.014724731	
1740127252769	0.0030517578	
1740127252770	0.02319336	
1740127252771	0.025405884	
1740127252772	0.046081543	
1740127252773	0.056915283	
1740127252774	0.046081543	
1740127252775	0.056533813	
1740127252776	0.05897522	
1740127252777	0.04508972	
1740127252778	0.058517456	
1740127252779	0.04676819	
1740127252780	0.056610107	
1740127252781	0.060195923	
1740127252782	0.03883362	
1740127252783	0.03211975	
1740127252784	0.037994385	
1740127252785	0.020370483	
1740127252786	0.016403198	
1740127252787	0.010299683	
1740127252788	-0.005722046	
1740127252789	0.0035858154	
1740127252790	-0.012207031	
1740127252791	-0.008392334	
1740127252792	-0.009918213	
1740127252793	-0.025024414	
1740127252794	-0.019607544	
1740127252795	-0.023956299	
1740127252796	-0.023956299	
1740127252797	-0.028152466	
1740127252798	-0.023956299	
1740127252799	-0.021820068	
1740127252800	-0.020217896	
1740127252801	-0.011138916	
1740127252802	-0.012054443	
1740127252803	-0.012054443	
1740127252804	-0.0023651123	
1740127252805	0.0049591064	
1740127252806	0.0045776367	
1740127252807	0.00869751	
1740127252808	0.009002686	
1740127252809	0.008468628	
1740127252810	0.020980835	
1740127252811	0.019989014	
1740127252812	0.036392212	
1740127252813	0.04135132	
1740127252814	0.028686523	
1740127252815	0.035095215	
1740127252816	0.024032593	
1740127252817	0.016937256	
1740127252818	0.009002686	
1740127252819	-0.009765625	
1740127252820	-0.013580322	
1740127252821	-0.01586914	
1740127252822	-0.023498535	
1740127252823	-0.03517151	
1740127252824	-0.047836304	
1740127252825	-0.052337646	
1740127252826	-0.054016113	
1740127252827	-0.05493164	
1740127252828	-0.049362183	
1740127252829	-0.055541992	
1740127252830	-0.054626465	
1740127252831	-0.030899048	
1740127252832	-0.041503906	
1740127252833	-0.05203247	
1740127252834	-0.032348633	
1740127252835	-0.015716553	
1740127252836	0.018615723	
1740127252837	0.022201538	
1740127252838	0.0132751465	
1740127252839	0.01663208	
1740127252840	0.016098022	
1740127252841	0.037384033	
1740127252842	0.03753662	
1740127252843	0.03982544	
1740127252844	0.044021606	
1740127252845	0.03211975	
1740127252846	0.041122437	
1740127252847	0.03593445	
1740127252848	0.03463745	
1740127252849	0.028305054	
1740127252850	0.024719238	
1740127252851	0.026779175	
1740127252852	0.023651123	
1740127252853	0.01586914	
1740127252854	0.0051116943	
1740127252855	0.008621216	
1740127252856	-7.6293945E-5	
1740127252857	-0.0045776367	
1740127252858	-0.009155273	
1740127252859	-0.010223389	
1740127252860	-0.010604858	
1740127252861	-0.012130737	
1740127252862	-0.015716553	
1740127252863	-0.019683838	
1740127252864	-0.020370483	
1740127252865	-0.014190674	
1740127252866	-0.011749268	
1740127252867	-0.01335144	
1740127252868	-0.014572144	
1740127252869	-0.0020599365	
1740127252870	0.015335083	
1740127252871	0.02204895	
1740127252872	0.025787354	
1740127252873	0.02784729	
1740127252874	0.033721924	
1740127252875	0.041885376	
1740127252876	0.04699707	
1740127252877	0.045166016	
1740127252878	0.040664673	
1740127252879	0.035324097	
1740127252880	0.029449463	
1740127252881	0.029220581	
1740127252882	0.019073486	
1740127252883	0.002746582	
1740127252884	-0.011062622	
1740127252885	-0.020523071	
1740127252886	-0.022735596	
1740127252887	-0.03540039	
1740127252888	-0.038757324	
1740127252889	-0.040130615	
1740127252890	-0.051879883	
1740127252891	-0.05645752	
1740127252892	-0.065841675	
1740127252893	-0.06965637	
1740127252894	-0.078048706	
1740127252895	-0.089035034	
1740127252896	-0.08766174	
1740127252897	-0.084991455	
1740127252898	-0.07774353	
1740127252899	-0.07324219	
1740127252900	-0.06362915	
1740127252901	-0.05104065	
1740127252902	-0.03364563	
1740127252903	-0.015563965	
1740127252904	0.0060272217	
1740127252905	0.047454834	
1740127252906	0.07888794	
1740127252907	0.1108551	
1740127252908	0.13587952	
1740127252909	0.14389038	
1740127252910	0.14297485	
1740127252911	0.12458801	
1740127252912	0.097579956	
1740127252913	0.0844574	
1740127252914	0.06813049	
1740127252915	0.04486084	
1740127252916	0.03616333	
1740127252917	0.022583008	
1740127252918	0.009918213	
1740127252919	-0.002822876	
1740127252920	-0.027770996	
1740127252921	-0.02670288	
1740127252922	-0.025024414	
1740127252923	-0.03036499	
1740127252924	-0.025558472	
1740127252925	-0.012359619	
1740127252926	0.0062561035	
1740127252927	0.031204224	
1740127252928	0.052108765	
1740127252929	0.06607056	
1740127252930	0.07141113	
1740127252931	0.05935669	
1740127252932	0.02670288	
1740127252933	0.004501343	
1740127252934	-0.01701355	
1740127252935	-0.045928955	
1740127252936	-0.08544922	
1740127252937	-0.13267517	
1740127252938	-0.16593933	
1740127252939	-0.1763916	
1740127252940	-0.19180298	
1740127252941	-0.2015686	
1740127252942	-0.17059326	
1740127252943	-0.12641907	
1740127252944	-0.07362366	
1740127252945	-0.04020691	
1740127252946	-0.04234314	
1740127252947	-0.029449463	
1740127252948	-0.011062622	
1740127252949	0.014801025	
1740127252950	0.0289917	
1740127252951	0.029678345	
1740127252952	0.055007935	
1740127252953	0.05783081	
1740127252954	0.07614136	
1740127252955	0.07904053	
1740127252956	0.08178711	
1740127252957	0.102767944	
1740127252958	0.09902954	
1740127252959	0.09536743	
1740127252960	0.10322571	
1740127252961	0.11001587	
1740127252962	0.078430176	
1740127252963	0.055389404	
1740127252964	0.043640137	
1740127252965	0.016937256	
1740127252966	-8.392334E-4	
1740127252967	0.008926392	
1740127252968	0.039520264	
1740127252969	0.04737854	
1740127252970	0.023956299	
1740127252971	-0.006866455	
1740127252972	-0.027008057	
1740127252973	-0.02861023	
1740127252974	-6.1035156E-4	
1740127252975	0.039978027	
1740127252976	0.050735474	
1740127252977	0.041427612	
1740127252978	0.026245117	
1740127252979	0.023956299	
1740127252980	0.03501892	
1740127252981	0.057373047	
1740127252982	0.07209778	
1740127252983	0.043258667	
1740127252984	0.022964478	
1740127252985	-0.001449585	
1740127252986	-0.025253296	
1740127252987	-0.049057007	
1740127252988	-0.05958557	
1740127252989	-0.053634644	
1740127252990	-0.048599243	
1740127252991	-0.040740967	
1740127252992	-0.053863525	
1740127252993	-0.04890442	
1740127252994	-0.052642822	
1740127252995	-0.059509277	
1740127252996	-0.05340576	
1740127252997	-0.059280396	
1740127252998	-0.06362915	
1740127252999	-0.09429932	
1740127253000	-0.114593506	
1740127253001	-0.1109314	
1740127253002	-0.11695862	
1740127253003	-0.13000488	
1740127253004	-0.15289307	
1740127253005	-0.16578674	
1740127253006	-0.14808655	
1740127253007	-0.11886597	
1740127253008	-0.10902405	
1740127253009	-0.106658936	
1740127253010	-0.07583618	
1740127253011	-0.036468506	
1740127253012	0.026321411	
1740127253013	0.13938904	
1740127253014	0.24360657	
1740127253015	0.28930664	
1740127253016	0.2972412	
1740127253017	0.27923584	
1740127253018	0.25032043	
1740127253019	0.22895813	
1740127253020	0.2079773	
1740127253021	0.18569946	
1740127253022	0.15655518	
1740127253023	0.12283325	
1740127253024	0.07537842	
1740127253025	0.023422241	
1740127253026	-0.0118255615	
1740127253027	-0.041122437	
1740127253028	-0.06500244	
1740127253029	-0.08354187	
1740127253030	-0.100631714	
1740127253031	-0.11077881	
1740127253032	-0.11222839	
1740127253033	-0.10902405	
1740127253034	-0.10986328	
1740127253035	-0.11192322	
1740127253036	-0.10620117	
1740127253037	-0.103530884	
1740127253038	-0.106277466	
1740127253039	-0.10116577	
1740127253040	-0.09277344	
1740127253041	-0.078430176	
1740127253042	-0.06034851	
1740127253043	-0.03692627	
1740127253044	0.0038146973	
1740127253045	0.05126953	
1740127253046	0.1083374	
1740127253047	0.18920898	
1740127253048	0.2606964	
1740127253049	0.2696228	
1740127253050	0.25146484	
1740127253051	0.2217865	
1740127253052	0.14816284	
1740127253053	0.041046143	
1740127253054	-0.06340027	
1740127253055	-0.13435364	
1740127253056	-0.2015686	
1740127253057	-0.24131775	
1740127253058	-0.26496887	
1740127253059	-0.26786804	
1740127253060	-0.25520325	
1740127253061	-0.22773743	
1740127253062	-0.19622803	
1740127253063	-0.17181396	
1740127253064	-0.113220215	
1740127253065	-0.087509155	
1740127253066	-0.045928955	
1740127253067	0.011749268	
1740127253068	0.03288269	
1740127253069	0.06385803	
1740127253070	0.082473755	
1740127253071	0.09529114	
1740127253072	0.12924194	
1740127253073	0.13969421	
1740127253074	0.1537323	
1740127253075	0.17745972	
1740127253076	0.18180847	
1740127253077	0.14183044	
1740127253078	0.09277344	
1740127253079	0.08308411	
1740127253080	0.112838745	
1740127253081	0.12054443	
1740127253082	0.100631714	
1740127253083	0.11672974	
1740127253084	0.07522583	
1740127253085	0.025634766	
1740127253086	7.6293945E-4	
1740127253087	-0.022277832	
1740127253088	-0.03578186	
1740127253089	-0.006713867	
1740127253090	0.019454956	
1740127253091	-0.029754639	
1740127253092	-0.08644104	
1740127253093	-0.10223389	
1740127253094	-0.07644653	
1740127253095	-0.02998352	
1740127253096	-0.042648315	
1740127253097	-0.05607605	
1740127253098	-0.051651	
1740127253099	-0.09849548	
1740127253100	-0.15090942	
1740127253101	-0.111083984	
1740127253102	-0.029220581	
1740127253103	-0.052719116	
1740127253104	-0.08049011	
1740127253105	-0.0743866	
1740127253106	-0.09338379	
1740127253107	-0.08529663	
1740127253108	-0.082855225	
1740127253109	0.00289917	
1740127253110	0.02571106	
1740127253111	-0.06111145	
1740127253112	0.018310547	
1740127253113	0.15716553	
1740127253114	0.21362305	
1740127253115	0.23223877	
1740127253116	0.21095276	
1740127253117	0.19111633	
1740127253118	0.17494202	
1740127253119	0.18753052	
1740127253120	0.11924744	
1740127253121	0.02357483	
1740127253122	0.012741089	
1740127253123	-0.028839111	
1740127253124	-0.04081726	
1740127253125	-0.068740845	
1740127253126	-0.07522583	
1740127253127	-0.054626465	
1740127253128	-0.095825195	
1740127253129	-0.12748718	
1740127253130	-0.13320923	
1740127253131	-0.11665344	
1740127253132	-0.12954712	
1740127253133	-0.12321472	
1740127253134	-0.068359375	
1740127253135	-0.083618164	
1740127253136	-0.10520935	
1740127253137	-0.08743286	
1740127253138	-0.0705719	
1740127253139	-0.044021606	
1740127253140	-0.026397705	
1740127253141	-0.03425598	
1740127253142	-0.026321411	
1740127253143	-0.0032806396	
1740127253144	0.016403198	
1740127253145	0.028839111	
1740127253146	0.021591187	
1740127253147	0.03074646	
1740127253148	0.059661865	
1740127253149	0.083847046	
1740127253150	0.07827759	
1740127253151	0.09361267	
1740127253152	0.14129639	
1740127253153	0.14175415	
1740127253154	0.15594482	
1740127253155	0.16654968	
1740127253156	0.14602661	
1740127253157	0.13999939	
1740127253158	0.11741638	
1740127253159	0.07484436	
1740127253160	0.019989014	
1740127253161	-0.031051636	
1740127253162	-0.037002563	
1740127253163	7.6293945E-4	
1740127253164	-0.023651123	
1740127253165	-0.07080078	
1740127253166	-0.10177612	
1740127253167	-0.18569946	
1740127253168	-0.20622253	
1740127253169	-0.1687622	
1740127253170	-0.16349792	
1740127253171	-0.15029907	
1740127253172	-0.11299133	
1740127253173	-0.086746216	
1740127253174	-0.080337524	
1740127253175	-0.078811646	
1740127253176	-0.027008057	
1740127253177	0.0075531006	
1740127253178	0.002822876	
1740127253179	0.06614685	
1740127253180	0.08934021	
1740127253181	0.055160522	
1740127253182	0.092315674	
1740127253183	0.14152527	
1740127253184	0.13717651	
1740127253185	0.030517578	
1740127253186	-0.037765503	
1740127253187	0.03677368	
1740127253188	0.057373047	
1740127253189	0.06866455	
1740127253190	0.11985779	
1740127253191	0.10848999	
1740127253192	0.06462097	
1740127253193	0.04928589	
1740127253194	0.07072449	
1740127253195	0.03364563	
1740127253196	-0.008468628	
1740127253197	-0.020065308	
1740127253198	-0.07987976	
1740127253199	-0.042648315	
1740127253200	-0.031051636	
1740127253201	-0.10040283	
1740127253202	-0.042114258	
1740127253203	-0.012207031	
1740127253204	-0.028915405	
1740127253205	-0.0046539307	
1740127253206	-0.024261475	
1740127253207	-0.070495605	
1740127253208	-0.08125305	
1740127253209	-0.042648315	
1740127253210	-0.031661987	
1740127253211	-0.06614685	
1740127253212	-0.0022888184	
1740127253213	0.063934326	
1740127253214	0.0024414062	
1740127253215	-0.009765625	
1740127253216	0.02281189	
1740127253217	0.0038146973	
1740127253218	-0.02861023	
1740127253219	-0.025482178	
1740127253220	0.0060272217	
1740127253221	-0.03074646	
1740127253222	-0.029067993	
1740127253223	0.031661987	
1740127253224	0.012054443	
1740127253225	0.045700073	
1740127253226	0.100860596	
1740127253227	0.0541687	
1740127253228	0.0030517578	
1740127253229	-0.055160522	
1740127253230	-0.060043335	
1740127253231	0.012588501	
1740127253232	0.07118225	
1740127253233	0.03387451	
1740127253234	-0.049438477	
1740127253235	-0.04425049	
1740127253236	-0.030059814	
1740127253237	0.04776001	
1740127253238	0.14419556	
1740127253239	0.13938904	
1740127253240	0.115356445	
1740127253241	0.0982666	
1740127253242	0.03868103	
1740127253243	-0.057907104	
1740127253244	-0.08934021	
1740127253245	-0.050735474	
1740127253246	-0.049591064	
1740127253247	-0.014190674	
1740127253248	0.020065308	
1740127253249	-0.013504028	
1740127253250	-0.008926392	
1740127253251	-0.028152466	
1740127253252	-0.027008057	
1740127253253	-0.004119873	
1740127253254	-0.14778137	
1740127253255	-0.20812988	
1740127253256	-0.1877594	
1740127253257	-0.16593933	
1740127253258	-0.048980713	
1740127253259	0.030670166	
1740127253260	0.09094238	
1740127253261	0.09010315	
1740127253262	0.05958557	
1740127253263	0.05935669	
1740127253264	0.0065612793	
1740127253265	-0.004425049	
1740127253266	0.09490967	
1740127253267	0.07858276	
1740127253268	5.340576E-4	
1740127253269	0.010299683	
1740127253270	-0.024795532	
1740127253271	-0.091171265	
1740127253272	-0.08621216	
1740127253273	0.03593445	
1740127253274	0.07759094	
1740127253275	0.06111145	
1740127253276	0.11657715	
1740127253277	0.06889343	
1740127253278	0.012893677	
1740127253279	0.03135681	
1740127253280	0.056381226	
1740127253281	0.09811401	
1740127253282	0.08605957	
1740127253283	-0.004272461	
1740127253284	-0.09719849	
1740127253285	-0.057907104	
1740127253286	-0.03135681	
1740127253287	-0.07209778	
1740127253288	0.0012969971	
1740127253289	0.0033569336	
1740127253290	-3.0517578E-4	
1740127253291	0.061035156	
1740127253292	0.0119018555	
1740127253293	-0.048599243	
1740127253294	-0.08598328	
1740127253295	-0.07873535	
1740127253296	-0.046539307	
1740127253297	-0.03440857	
1740127253298	0.037765503	
1740127253299	0.051651	
1740127253300	0.058059692	
1740127253301	0.0693512	
1740127253302	-0.06111145	
1740127253303	-0.12062073	
1740127253304	-0.069732666	
1740127253305	-0.024414062	
1740127253306	0.024261475	
1740127253307	0.011520386	
1740127253308	0.025024414	
1740127253309	0.02998352	
1740127253310	-0.06515503	
1740127253311	-0.0365448	
1740127253312	0.027389526	
1740127253313	-0.04890442	
1740127253314	-0.06568909	
1740127253315	0.0066375732	
1740127253316	0.05279541	
1740127253317	0.06462097	
1740127253318	0.074539185	
1740127253319	0.04310608	
1740127253320	-0.020751953	
1740127253321	-0.03845215	
1740127253322	-0.08491516	
1740127253323	-0.04966736	
1740127253324	0.14060974	
1740127253325	0.17860413	
1740127253326	0.055160522	
1740127253327	0.0035095215	
1740127253328	-0.012207031	
1740127253329	-0.0769043	
1740127253330	-0.07064819	
1740127253331	0.004043579	
1740127253332	0.07019043	
1740127253333	0.09918213	
1740127253334	-0.016860962	
1740127253335	-0.04837036	
1740127253336	0.02029419	
1740127253337	0.038604736	
1740127253338	0.022735596	
1740127253339	-0.058746338	
1740127253340	-0.023117065	
1740127253341	-0.08468628	
1740127253342	-0.16479492	
1740127253343	-0.019607544	
1740127253344	-0.0066375732	
1740127253345	0.034484863	
1740127253346	0.07545471	
1740127253347	-0.009994507	
1740127253348	0.0029754639	
1740127253349	-0.030441284	
1740127253350	-0.05470276	
1740127253351	5.340576E-4	
1740127253352	0.022659302	
1740127253353	-0.028839111	
1740127253354	-0.08796692	
1740127253355	-0.016860962	
1740127253356	0.016555786	
1740127253357	0.01838684	
1740127253358	0.07865906	
1740127253359	0.08026123	
1740127253360	0.06607056	
1740127253361	-0.043182373	
1740127253362	-0.056228638	
1740127253363	0.15274048	
1740127253364	0.16540527	
1740127253365	0.030517578	
1740127253366	-0.05378723	
1740127253367	-0.1361084	
1740127253368	-0.047454834	
1740127253369	0.07675171	
1740127253370	0.09490967	
1740127253371	0.08666992	
1740127253372	-0.0932312	
1740127253373	-0.1701355	
1740127253374	-0.028533936	
1740127253375	0.01876831	
1740127253376	-0.027160645	
1740127253377	-0.0957489	
1740127253378	-0.061035156	
1740127253379	0.048599243	
1740127253380	0.04737854	
1740127253381	-0.02746582	
1740127253382	-0.043258667	
1740127253383	0.032958984	
1740127253384	0.060195923	
1740127253385	0.032348633	
1740127253386	0.03501892	
1740127253387	-0.0011444092	
1740127253388	-0.023803711	
1740127253389	-0.016021729	
