# OpenSignals Text File Format
# {"00:80:E1:26:9F:85":{"sensor":["EMG"],"device name":"00:80:E1:26:9F:85","column":["timestamp","EMG"],"sync interval":2,"time":"09:40:48","comments":"","keywords":"","device connection":"BLE00:80:E1:26:9F:85","channels":[0],"date":"2025-02-21","mode":0,"digital IO":[],"firmware version":259,"device":"musclebanplux","position":0,"sampling rate":1000,"label":["EMG"],"resolution":[16],"special":[{}],"sleeve color":["UNKNOWN"]}}
# EndOfHeader
1740127249002	-0.0146484375	
1740127249003	-9.1552734E-4	
1740127249004	0.0021362305	
1740127249005	-5.340576E-4	
1740127249006	0.0037384033	
1740127249007	7.6293945E-5	
1740127249008	-0.004348755	
1740127249009	-0.004425049	
1740127249010	0.0034332275	
1740127249011	0.008163452	
1740127249012	0.008621216	
1740127249013	0.008773804	
1740127249014	3.0517578E-4	
1740127249015	-7.6293945E-5	
1740127249016	-0.00289917	
1740127249017	-0.011749268	
1740127249018	-0.005264282	
1740127249019	6.866455E-4	
1740127249020	-0.0022125244	
1740127249021	-0.008544922	
1740127249022	-0.007247925	
1740127249023	0.005874634	
1740127249024	0.014190674	
1740127249025	0.008850098	
1740127249026	-0.008468628	
1740127249027	-0.010528564	
1740127249028	0.005340576	
1740127249029	0.012741089	
1740127249030	0.0063323975	
1740127249031	-0.0010681152	
1740127249032	-0.0024414062	
1740127249033	-0.011444092	
1740127249034	-0.009689331	
1740127249035	0.002746582	
1740127249036	-3.0517578E-4	
1740127249037	7.6293945E-5	
1740127249038	0.002670288	
1740127249039	7.6293945E-4	
1740127249040	-7.6293945E-5	
1740127249041	-0.0061035156	
1740127249042	1.5258789E-4	
1740127249043	0.008773804	
1740127249044	0.0032806396	
1740127249045	0.0033569336	
1740127249046	0.0029754639	
1740127249047	0.0016021729	
1740127249048	0.0049591064	
1740127249049	0.0016784668	
1740127249050	-8.392334E-4	
1740127249051	0.0	
1740127249052	-0.0029754639	
1740127249053	-0.002670288	
1740127249054	0.0015258789	
1740127249055	-0.0016021729	
1740127249056	-0.0051879883	
1740127249057	-0.001373291	
1740127249058	0.0029754639	
1740127249059	-4.5776367E-4	
1740127249060	-0.0074005127	
1740127249061	-0.0051879883	
1740127249062	-0.0036621094	
1740127249063	-0.0011444092	
1740127249064	0.004043579	
1740127249065	-0.0016784668	
1740127249066	-0.0049591064	
1740127249067	-0.001373291	
1740127249068	0.003967285	
1740127249069	0.006713867	
1740127249070	-5.340576E-4	
1740127249071	-0.0011444092	
1740127249072	0.0016021729	
1740127249073	-0.0017547607	
1740127249074	0.0024414062	
1740127249075	0.0037384033	
1740127249076	-0.0048065186	
1740127249077	-0.011672974	
1740127249078	-0.0073242188	
1740127249079	0.008773804	
1740127249080	0.012741089	
1740127249081	0.011520386	
1740127249082	0.0118255615	
1740127249083	0.0015258789	
1740127249084	6.866455E-4	
1740127249085	-1.5258789E-4	
1740127249086	-0.009155273	
1740127249087	-0.005874634	
1740127249088	-0.0024414062	
1740127249089	-0.0061798096	
1740127249090	-0.00289917	
1740127249091	0.0010681152	
1740127249092	0.0024414062	
1740127249093	0.00289917	
1740127249094	0.0019073486	
1740127249095	0.0049591064	
1740127249096	0.0038146973	
1740127249097	-0.006942749	
1740127249098	-0.018310547	
1740127249099	-0.017623901	
1740127249100	-0.004272461	
1740127249101	0.0038146973	
1740127249102	0.002746582	
1740127249103	0.006942749	
1740127249104	0.012130737	
1740127249105	0.012283325	
1740127249106	0.003967285	
1740127249107	-0.0077819824	
1740127249108	-0.00579834	
1740127249109	6.1035156E-4	
1740127249110	0.0016021729	
1740127249111	0.0015258789	
1740127249112	0.0022125244	
1740127249113	2.2888184E-4	
1740127249114	-0.0038909912	
1740127249115	-0.0022125244	
1740127249116	0.0020599365	
1740127249117	0.0019836426	
1740127249118	0.008392334	
1740127249119	0.012130737	
1740127249120	-0.0012969971	
1740127249121	-0.009536743	
1740127249122	-0.011291504	
1740127249123	-0.01449585	
1740127249124	-0.0074005127	
1740127249125	0.0035858154	
1740127249126	0.01083374	
1740127249127	0.016174316	
1740127249128	0.015487671	
1740127249129	0.0037384033	
1740127249130	-0.0060272217	
1740127249131	8.392334E-4	
1740127249132	0.0021362305	
1740127249133	-0.0062561035	
1740127249134	-0.007858276	
1740127249135	-0.00541687	
1740127249136	-0.0061798096	
1740127249137	-0.0077819824	
1740127249138	-0.0023651123	
1740127249139	2.2888184E-4	
1740127249140	6.1035156E-4	
1740127249141	0.0030517578	
1740127249142	0.0012207031	
1740127249143	0.0061035156	
1740127249144	0.0045776367	
1740127249145	-0.009918213	
1740127249146	-0.009765625	
1740127249147	-0.002746582	
1740127249148	-0.0017547607	
1740127249149	9.918213E-4	
1740127249150	0.005722046	
1740127249151	0.010070801	
1740127249152	0.014266968	
1740127249153	0.012054443	
1740127249154	-0.0025939941	
1740127249155	-0.012283325	
1740127249156	-0.010528564	
1740127249157	-0.00579834	
1740127249158	-0.001449585	
1740127249159	-0.0022888184	
1740127249160	0.0025939941	
1740127249161	-9.918213E-4	
1740127249162	-0.0073242188	
1740127249163	-0.0016021729	
1740127249164	-0.001449585	
1740127249165	0.0035858154	
1740127249166	-0.0033569336	
1740127249167	-0.004272461	
1740127249168	0.01449585	
1740127249169	0.009002686	
1740127249170	0.0050354004	
1740127249171	0.010604858	
1740127249172	-0.0024414062	
1740127249173	-0.016174316	
1740127249174	-0.0061035156	
1740127249175	0.0074005127	
1740127249176	0.0018310547	
1740127249177	0.009155273	
1740127249178	0.017547607	
1740127249179	0.0035858154	
1740127249180	-0.008163452	
1740127249181	-0.009918213	
1740127249182	-0.0021362305	
1740127249183	-0.003967285	
1740127249184	-0.009689331	
1740127249185	2.2888184E-4	
1740127249186	0.009002686	
1740127249187	0.0066375732	
1740127249188	-0.004043579	
1740127249189	-0.009841919	
1740127249190	-0.0030517578	
1740127249191	0.004348755	
1740127249192	0.002746582	
1740127249193	-0.0076293945	
1740127249194	-0.0060272217	
1740127249195	0.0035858154	
1740127249196	2.2888184E-4	
1740127249197	0.004043579	
1740127249198	0.00541687	
1740127249199	-0.002746582	
1740127249200	-3.8146973E-4	
1740127249201	-0.0032806396	
1740127249202	-0.0047302246	
1740127249203	0.004501343	
1740127249204	0.0022125244	
1740127249205	-0.0048828125	
1740127249206	-0.0035858154	
1740127249207	-0.0025177002	
1740127249208	-0.006866455	
1740127249209	-0.007019043	
1740127249210	0.001449585	
1740127249211	0.0023651123	
1740127249212	0.0021362305	
1740127249213	0.007858276	
1740127249214	0.004501343	
1740127249215	0.0011444092	
1740127249216	0.00831604	
1740127249217	0.009231567	
1740127249218	-8.392334E-4	
1740127249219	0.00289917	
1740127249220	0.008087158	
1740127249221	-0.0049591064	
1740127249222	-0.012512207	
1740127249223	-0.007247925	
1740127249224	-0.0073242188	
1740127249225	8.392334E-4	
1740127249226	0.016860962	
1740127249227	0.012512207	
1740127249228	0.0024414062	
1740127249229	-0.005874634	
1740127249230	-0.014038086	
1740127249231	-0.009460449	
1740127249232	0.0033569336	
1740127249233	0.010147095	
1740127249234	0.0024414062	
1740127249235	-6.1035156E-4	
1740127249236	0.0035095215	
1740127249237	-1.5258789E-4	
1740127249238	-0.0019836426	
1740127249239	-0.0021362305	
1740127249240	-0.0077056885	
1740127249241	-0.006942749	
1740127249242	-0.003967285	
1740127249243	0.0019073486	
1740127249244	0.0038146973	
1740127249245	-0.011291504	
1740127249246	-0.0065612793	
1740127249247	0.005569458	
1740127249248	-0.0012207031	
1740127249249	0.0015258789	
1740127249250	0.004119873	
1740127249251	3.0517578E-4	
1740127249252	-9.918213E-4	
1740127249253	-0.0065612793	
1740127249254	-0.0075531006	
1740127249255	0.0012207031	
1740127249256	0.009155273	
1740127249257	0.010070801	
1740127249258	0.007095337	
1740127249259	-0.0032043457	
1740127249260	-0.009689331	
1740127249261	-0.00289917	
1740127249262	0.0038909912	
1740127249263	0.010910034	
1740127249264	0.014038086	
1740127249265	0.004119873	
1740127249266	-0.0033569336	
1740127249267	0.0018310547	
1740127249268	0.007171631	
1740127249269	0.004119873	
1740127249270	-0.002746582	
1740127249271	-0.004425049	
1740127249272	-0.0021362305	
1740127249273	-7.6293945E-4	
1740127249274	-0.008468628	
1740127249275	-0.019836426	
1740127249276	-0.008468628	
1740127249277	0.008544922	
1740127249278	0.009460449	
1740127249279	0.008010864	
1740127249280	0.0046539307	
1740127249281	-0.0062561035	
1740127249282	-0.018005371	
1740127249283	-0.009307861	
1740127249284	0.015792847	
1740127249285	0.0064086914	
1740127249286	-0.012283325	
1740127249287	-0.005722046	
1740127249288	-0.0059509277	
1740127249289	0.0032043457	
1740127249290	0.008163452	
1740127249291	-0.0066375732	
1740127249292	-0.010604858	
1740127249293	-0.00541687	
1740127249294	0.009613037	
1740127249295	0.012283325	
1740127249296	0.0016021729	
1740127249297	0.0030517578	
1740127249298	0.0065612793	
1740127249299	0.014801025	
1740127249300	0.013198853	
1740127249301	0.0019073486	
1740127249302	0.011291504	
1740127249303	0.007171631	
1740127249304	-0.012054443	
1740127249305	-0.0074005127	
1740127249306	-0.0062561035	
1740127249307	-0.015487671	
1740127249308	-0.017929077	
1740127249309	-0.008926392	
1740127249310	0.0019073486	
1740127249311	-8.392334E-4	
1740127249312	4.5776367E-4	
1740127249313	0.0022125244	
1740127249314	-0.0016784668	
1740127249315	8.392334E-4	
1740127249316	0.0024414062	
1740127249317	-0.0060272217	
1740127249318	-0.01373291	
1740127249319	-0.010299683	
1740127249320	-9.918213E-4	
1740127249321	0.0090789795	
1740127249322	0.013580322	
1740127249323	0.012741089	
1740127249324	0.016174316	
1740127249325	0.0119018555	
1740127249326	0.0012969971	
1740127249327	-2.2888184E-4	
1740127249328	-0.0021362305	
1740127249329	0.0012969971	
1740127249330	0.0025939941	
1740127249331	-0.0050354004	
1740127249332	-0.0066375732	
1740127249333	-0.008010864	
1740127249334	-0.011444092	
1740127249335	-0.007095337	
1740127249336	0.0033569336	
1740127249337	0.005645752	
1740127249338	0.008926392	
1740127249339	0.013198853	
1740127249340	0.0061035156	
1740127249341	-0.0032806396	
1740127249342	-0.009307861	
1740127249343	-0.008926392	
1740127249344	-0.008544922	
1740127249345	-0.005340576	
1740127249346	0.0019836426	
1740127249347	0.009613037	
1740127249348	0.008773804	
1740127249349	-0.0032806396	
1740127249350	-0.0022888184	
1740127249351	-0.0018310547	
1740127249352	0.0023651123	
1740127249353	0.01373291	
1740127249354	-0.001449585	
1740127249355	-0.015945435	
1740127249356	-0.017166138	
1740127249357	-0.013122559	
1740127249358	-0.005874634	
1740127249359	0.0047302246	
1740127249360	0.014419556	
1740127249361	0.008621216	
1740127249362	0.0022888184	
1740127249363	-0.00831604	
1740127249364	-0.0076293945	
1740127249365	0.011520386	
1740127249366	0.008850098	
1740127249367	-9.1552734E-4	
1740127249368	-0.0018310547	
1740127249369	-0.0020599365	
1740127249370	0.0065612793	
1740127249371	0.0031280518	
1740127249372	-0.010681152	
1740127249373	-0.0012207031	
1740127249374	0.008621216	
1740127249375	9.918213E-4	
1740127249376	-0.0024414062	
1740127249377	-0.002670288	
1740127249378	0.002822876	
1740127249379	0.011367798	
1740127249380	6.1035156E-4	
1740127249381	-0.009002686	
1740127249382	-6.1035156E-4	
1740127249383	2.2888184E-4	
1740127249384	0.0021362305	
1740127249385	0.010604858	
1740127249386	0.008926392	
1740127249387	0.004119873	
1740127249388	-0.001373291	
1740127249389	3.0517578E-4	
1740127249390	-0.001373291	
1740127249391	-0.01586914	
1740127249392	-0.020141602	
1740127249393	-0.012207031	
1740127249394	9.918213E-4	
1740127249395	0.0032806396	
1740127249396	0.002746582	
1740127249397	0.004043579	
1740127249398	0.004196167	
1740127249399	0.009384155	
1740127249400	-3.8146973E-4	
1740127249401	-0.008239746	
1740127249402	-0.0090789795	
1740127249403	-0.0035858154	
1740127249404	0.0074005127	
1740127249405	0.004196167	
1740127249406	0.002822876	
1740127249407	0.0020599365	
1740127249408	0.0032043457	
1740127249409	0.0036621094	
1740127249410	-0.0023651123	
1740127249411	-0.010910034	
1740127249412	-0.0146484375	
1740127249413	0.0010681152	
1740127249414	5.340576E-4	
1740127249415	-0.0032043457	
1740127249416	0.010375977	
1740127249417	0.009689331	
1740127249418	0.00541687	
1740127249419	0.004119873	
1740127249420	0.0017547607	
1740127249421	9.918213E-4	
1740127249422	-7.6293945E-4	
1740127249423	-0.0038909912	
1740127249424	-0.0049591064	
1740127249425	-7.6293945E-4	
1740127249426	0.0023651123	
1740127249427	-0.001449585	
1740127249428	7.6293945E-4	
1740127249429	0.005264282	
1740127249430	0.003967285	
1740127249431	0.005722046	
1740127249432	-0.003967285	
1740127249433	-0.014877319	
1740127249434	-0.003967285	
1740127249435	0.005340576	
1740127249436	0.0029754639	
1740127249437	-0.0023651123	
1740127249438	-0.0019073486	
1740127249439	0.009994507	
1740127249440	0.009765625	
1740127249441	-0.008392334	
1740127249442	-0.019073486	
1740127249443	-0.0132751465	
1740127249444	-0.0060272217	
1740127249445	-0.0030517578	
1740127249446	9.918213E-4	
1740127249447	0.0034332275	
1740127249448	0.0075531006	
1740127249449	0.0049591064	
1740127249450	0.00831604	
1740127249451	0.01586914	
1740127249452	0.001449585	
1740127249453	-0.004119873	
1740127249454	0.004196167	
1740127249455	7.6293945E-4	
1740127249456	-0.0048828125	
1740127249457	-0.0051116943	
1740127249458	-2.2888184E-4	
1740127249459	0.0038146973	
1740127249460	3.0517578E-4	
1740127249461	0.0012969971	
1740127249462	0.0033569336	
1740127249463	8.392334E-4	
1740127249464	0.0032806396	
1740127249465	9.1552734E-4	
1740127249466	-0.011444092	
1740127249467	-0.014953613	
1740127249468	-0.002746582	
1740127249469	0.0024414062	
1740127249470	-0.0032043457	
1740127249471	-0.007019043	
1740127249472	0.0047302246	
1740127249473	0.017242432	
1740127249474	0.004196167	
1740127249475	-9.1552734E-4	
1740127249476	0.0031280518	
1740127249477	-0.004196167	
1740127249478	-0.0066375732	
1740127249479	-0.0074768066	
1740127249480	-0.0020599365	
1740127249481	0.012130737	
1740127249482	0.009613037	
1740127249483	-0.0018310547	
1740127249484	-0.0066375732	
1740127249485	-0.010375977	
1740127249486	-0.009002686	
1740127249487	-0.004043579	
1740127249488	0.0049591064	
1740127249489	0.01083374	
1740127249490	0.00793457	
1740127249491	-0.0051879883	
1740127249492	-0.016555786	
1740127249493	-0.0012207031	
1740127249494	0.0077056885	
1740127249495	0.0051116943	
1740127249496	0.0065612793	
1740127249497	-1.5258789E-4	
1740127249498	0.0077056885	
1740127249499	0.0061035156	
1740127249500	-0.015487671	
1740127249501	-0.0018310547	
1740127249502	0.010757446	
1740127249503	-0.004196167	
1740127249504	-0.006866455	
1740127249505	-0.0059509277	
1740127249506	0.0030517578	
1740127249507	0.0090789795	
1740127249508	-0.002746582	
1740127249509	-7.6293945E-4	
1740127249510	0.0038146973	
1740127249511	0.011749268	
1740127249512	0.0050354004	
1740127249513	-0.02166748	
1740127249514	-0.02319336	
1740127249515	-0.010986328	
1740127249516	0.0090789795	
1740127249517	0.020599365	
1740127249518	0.021820068	
1740127249519	0.012207031	
1740127249520	-0.012359619	
1740127249521	-0.0047302246	
1740127249522	-0.0019073486	
1740127249523	-0.011062622	
1740127249524	0.006790161	
1740127249525	0.009841919	
1740127249526	-3.0517578E-4	
1740127249527	-0.0020599365	
1740127249528	-0.0051879883	
1740127249529	-0.004043579	
1740127249530	-0.004348755	
1740127249531	-0.007858276	
1740127249532	-0.006790161	
1740127249533	-0.009155273	
1740127249534	-0.012741089	
1740127249535	-0.0047302246	
1740127249536	0.009155273	
1740127249537	0.01739502	
1740127249538	0.022125244	
1740127249539	0.005340576	
1740127249540	-0.0146484375	
1740127249541	-8.392334E-4	
1740127249542	0.00793457	
1740127249543	0.0020599365	
1740127249544	-0.0022888184	
1740127249545	-0.013961792	
1740127249546	-0.013885498	
1740127249547	-0.00831604	
1740127249548	3.8146973E-4	
1740127249549	0.014953613	
1740127249550	0.012283325	
1740127249551	0.0035858154	
1740127249552	3.8146973E-4	
1740127249553	6.866455E-4	
1740127249554	0.0022888184	
1740127249555	3.8146973E-4	
1740127249556	0.002670288	
1740127249557	0.0090789795	
1740127249558	0.014343262	
1740127249559	0.00579834	
1740127249560	-0.009536743	
1740127249561	-0.013656616	
1740127249562	-0.00793457	
1740127249563	-0.0012969971	
1740127249564	0.0064849854	
1740127249565	0.012817383	
1740127249566	0.009918213	
1740127249567	-0.0035095215	
1740127249568	-0.012817383	
1740127249569	-0.0061035156	
1740127249570	-0.009155273	
1740127249571	-0.018463135	
1740127249572	-0.022888184	
1740127249573	-0.023345947	
1740127249574	-0.013427734	
1740127249575	-1.5258789E-4	
1740127249576	0.021057129	
1740127249577	0.023117065	
1740127249578	0.008544922	
1740127249579	0.0090789795	
1740127249580	-0.0034332275	
1740127249581	-0.012817383	
1740127249582	-0.0016021729	
1740127249583	0.0074005127	
1740127249584	0.018310547	
1740127249585	0.021438599	
1740127249586	0.014572144	
1740127249587	-0.0010681152	
1740127249588	-0.013656616	
1740127249589	-0.008621216	
1740127249590	-0.0010681152	
1740127249591	0.0046539307	
1740127249592	-0.004501343	
1740127249593	0.0024414062	
1740127249594	0.010528564	
1740127249595	-0.005340576	
1740127249596	-6.1035156E-4	
1740127249597	-0.0037384033	
1740127249598	-0.001373291	
1740127249599	0.008392334	
1740127249600	-0.004501343	
1740127249601	3.0517578E-4	
1740127249602	-0.008010864	
1740127249603	-0.027008057	
1740127249604	-0.009841919	
1740127249605	9.1552734E-4	
1740127249606	0.001449585	
1740127249607	0.012130737	
1740127249608	0.009002686	
1740127249609	3.8146973E-4	
1740127249610	1.5258789E-4	
1740127249611	0.009460449	
1740127249612	0.018920898	
1740127249613	-1.5258789E-4	
1740127249614	-0.013885498	
1740127249615	-0.011520386	
1740127249616	-0.008621216	
1740127249617	-2.2888184E-4	
1740127249618	-0.0060272217	
1740127249619	0.0033569336	
1740127249620	0.012893677	
1740127249621	-0.0036621094	
1740127249622	-0.010986328	
1740127249623	-7.6293945E-4	
1740127249624	0.012512207	
1740127249625	0.0065612793	
1740127249626	0.0030517578	
1740127249627	0.0033569336	
1740127249628	-0.00831604	
1740127249629	-0.011367798	
1740127249630	-0.013961792	
1740127249631	0.0019073486	
1740127249632	0.018844604	
1740127249633	0.0062561035	
1740127249634	-0.0012207031	
1740127249635	-0.0049591064	
1740127249636	-3.0517578E-4	
1740127249637	0.011062622	
1740127249638	0.0051879883	
1740127249639	-0.003967285	
1740127249640	-0.00869751	
1740127249641	-0.013046265	
1740127249642	-0.0077056885	
1740127249643	0.0012207031	
1740127249644	0.0033569336	
1740127249645	0.0033569336	
1740127249646	-0.0015258789	
1740127249647	-0.005645752	
1740127249648	-0.0012969971	
1740127249649	0.0074005127	
1740127249650	0.017166138	
1740127249651	0.020599365	
1740127249652	0.005264282	
1740127249653	-0.010299683	
1740127249654	-0.0062561035	
1740127249655	-0.01159668	
1740127249656	-0.013656616	
1740127249657	0.002670288	
1740127249658	5.340576E-4	
1740127249659	-0.00289917	
1740127249660	-0.0050354004	
1740127249661	-0.01411438	
1740127249662	-0.0022888184	
1740127249663	0.01373291	
1740127249664	0.010757446	
1740127249665	-0.005874634	
1740127249666	-0.008239746	
1740127249667	0.011367798	
1740127249668	0.016479492	
1740127249669	0.0017547607	
1740127249670	-0.0034332275	
1740127249671	-0.008087158	
1740127249672	-0.003967285	
1740127249673	0.012893677	
1740127249674	0.011062622	
1740127249675	0.010070801	
1740127249676	-0.004501343	
1740127249677	-0.032730103	
1740127249678	-0.019226074	
1740127249679	0.004425049	
1740127249680	3.8146973E-4	
1740127249681	7.6293945E-5	
1740127249682	0.0030517578	
1740127249683	-0.0051116943	
1740127249684	0.007019043	
1740127249685	0.019607544	
1740127249686	0.0018310547	
1740127249687	-0.0066375732	
1740127249688	0.0016784668	
1740127249689	0.0050354004	
1740127249690	0.001373291	
1740127249691	-0.0030517578	
1740127249692	-0.005645752	
1740127249693	-0.0048828125	
1740127249694	-0.0019073486	
1740127249695	-0.00289917	
1740127249696	0.0	
1740127249697	0.009231567	
1740127249698	0.015106201	
1740127249699	0.0090789795	
1740127249700	-0.0031280518	
1740127249701	-0.012741089	
1740127249702	-0.015716553	
1740127249703	-0.0050354004	
1740127249704	0.0046539307	
1740127249705	-0.004272461	
1740127249706	-0.01373291	
1740127249707	-0.007247925	
1740127249708	0.014266968	
1740127249709	0.014343262	
1740127249710	-0.0016784668	
1740127249711	0.004272461	
1740127249712	0.0051116943	
1740127249713	-0.0035095215	
1740127249714	-0.0017547607	
1740127249715	-5.340576E-4	
1740127249716	0.007171631	
1740127249717	0.009384155	
1740127249718	3.8146973E-4	
1740127249719	0.009918213	
1740127249720	0.00831604	
1740127249721	-0.016479492	
1740127249722	-0.031661987	
1740127249723	-0.02532959	
1740127249724	-0.0038909912	
1740127249725	0.0034332275	
1740127249726	0.014572144	
1740127249727	0.036010742	
1740127249728	0.020980835	
1740127249729	-0.0045776367	
1740127249730	-0.013122559	
1740127249731	-0.009307861	
1740127249732	0.0033569336	
1740127249733	0.007247925	
1740127249734	0.0035858154	
1740127249735	-0.0073242188	
1740127249736	-0.023422241	
1740127249737	-0.019226074	
1740127249738	-0.012741089	
1740127249739	-0.010147095	
1740127249740	0.005493164	
1740127249741	0.009536743	
1740127249742	0.0077819824	
1740127249743	0.005264282	
1740127249744	0.0029754639	
1740127249745	0.008468628	
1740127249746	0.008087158	
1740127249747	0.012893677	
1740127249748	0.01625061	
1740127249749	0.010299683	
1740127249750	-0.0118255615	
1740127249751	-0.02784729	
1740127249752	-0.0037384033	
1740127249753	-6.866455E-4	
1740127249754	-0.01876831	
1740127249755	-0.002822876	
1740127249756	0.015106201	
1740127249757	0.00831604	
1740127249758	0.005569458	
1740127249759	0.010070801	
1740127249760	0.00541687	
1740127249761	-0.0011444092	
1740127249762	-0.0024414062	
1740127249763	-0.00289917	
1740127249764	-0.0074005127	
1740127249765	-0.005493164	
1740127249766	-0.0017547607	
1740127249767	-0.003967285	
1740127249768	-0.0025939941	
1740127249769	0.00289917	
1740127249770	0.005493164	
1740127249771	0.0062561035	
1740127249772	0.009994507	
1740127249773	0.0022888184	
1740127249774	-0.008773804	
1740127249775	-0.00289917	
1740127249776	-0.0019836426	
1740127249777	-0.013580322	
1740127249778	-0.007171631	
1740127249779	0.00541687	
1740127249780	-0.009002686	
1740127249781	0.0010681152	
1740127249782	0.019836426	
1740127249783	-0.0016784668	
1740127249784	-0.0066375732	
1740127249785	-9.1552734E-4	
1740127249786	0.01083374	
1740127249787	0.01838684	
1740127249788	0.0032806396	
1740127249789	-0.00289917	
1740127249790	-0.005722046	
1740127249791	-0.012130737	
1740127249792	-0.021057129	
1740127249793	-0.007019043	
1740127249794	0.010910034	
1740127249795	0.0038909912	
1740127249796	0.0016021729	
1740127249797	0.0019836426	
1740127249798	3.0517578E-4	
1740127249799	2.2888184E-4	
1740127249800	-0.009536743	
1740127249801	-0.011749268	
1740127249802	-0.0025939941	
1740127249803	-4.5776367E-4	
1740127249804	0.0064086914	
1740127249805	0.007019043	
1740127249806	-0.0015258789	
1740127249807	-2.2888184E-4	
1740127249808	0.009155273	
1740127249809	0.012588501	
1740127249810	-7.6293945E-4	
1740127249811	-0.0015258789	
1740127249812	0.008163452	
1740127249813	0.004272461	
1740127249814	0.0	
1740127249815	-0.004043579	
1740127249816	-0.0048065186	
1740127249817	-0.0032043457	
1740127249818	-0.0060272217	
1740127249819	-0.0033569336	
1740127249820	-0.0015258789	
1740127249821	0.0032806396	
1740127249822	0.0060272217	
1740127249823	-0.004119873	
1740127249824	-0.008621216	
1740127249825	-0.005569458	
1740127249826	0.0010681152	
1740127249827	3.8146973E-4	
1740127249828	0.0015258789	
1740127249829	0.0059509277	
1740127249830	-4.5776367E-4	
1740127249831	0.0010681152	
1740127249832	0.0037384033	
1740127249833	4.5776367E-4	
1740127249834	-0.0019836426	
1740127249835	-0.0023651123	
1740127249836	0.0032806396	
1740127249837	-0.004119873	
1740127249838	-0.004425049	
1740127249839	0.0029754639	
1740127249840	3.0517578E-4	
1740127249841	7.6293945E-5	
1740127249842	0.002822876	
1740127249843	0.0064086914	
1740127249844	0.002822876	
1740127249845	-0.0032806396	
1740127249846	-0.004348755	
1740127249847	-0.0061798096	
1740127249848	-0.0032043457	
1740127249849	0.0022888184	
1740127249850	-2.2888184E-4	
1740127249851	-0.0065612793	
1740127249852	0.0016021729	
1740127249853	0.011672974	
1740127249854	0.0049591064	
1740127249855	0.002822876	
1740127249856	0.0016784668	
1740127249857	-3.0517578E-4	
1740127249858	0.00869751	
1740127249859	-0.0012969971	
1740127249860	-0.017242432	
1740127249861	-0.0074005127	
1740127249862	-0.0017547607	
1740127249863	-0.0075531006	
1740127249864	-0.0035095215	
1740127249865	0.0029754639	
1740127249866	0.0077819824	
1740127249867	0.0050354004	
1740127249868	-0.0022125244	
1740127249869	-0.005722046	
1740127249870	-0.012207031	
1740127249871	-0.0047302246	
1740127249872	0.004272461	
1740127249873	-0.004425049	
1740127249874	0.0030517578	
1740127249875	0.015106201	
1740127249876	-9.1552734E-4	
1740127249877	-0.012893677	
1740127249878	-0.004425049	
1740127249879	0.0060272217	
1740127249880	0.013122559	
1740127249881	0.016174316	
1740127249882	0.009841919	
1740127249883	0.0019073486	
1740127249884	-9.1552734E-4	
1740127249885	-0.010986328	
1740127249886	-0.0038146973	
1740127249887	0.017166138	
1740127249888	0.008239746	
1740127249889	-0.0035095215	
1740127249890	-0.0035095215	
1740127249891	-0.004501343	
1740127249892	-0.0060272217	
1740127249893	-0.009460449	
1740127249894	-0.0010681152	
1740127249895	-4.5776367E-4	
1740127249896	-0.008468628	
1740127249897	-0.0034332275	
1740127249898	0.002822876	
1740127249899	0.0012207031	
1740127249900	-0.0049591064	
1740127249901	-0.0038909912	
1740127249902	-0.001449585	
1740127249903	-0.004119873	
1740127249904	-0.0036621094	
1740127249905	-0.0060272217	
1740127249906	0.0011444092	
1740127249907	0.013809204	
1740127249908	0.002822876	
1740127249909	-0.009918213	
1740127249910	-0.006713867	
1740127249911	-0.003967285	
1740127249912	5.340576E-4	
1740127249913	0.004119873	
1740127249914	0.0020599365	
1740127249915	6.866455E-4	
1740127249916	-3.0517578E-4	
1740127249917	0.00289917	
1740127249918	0.008239746	
1740127249919	0.008392334	
1740127249920	0.008239746	
1740127249921	0.010070801	
1740127249922	0.0035858154	
1740127249923	0.0032043457	
1740127249924	0.010223389	
1740127249925	-0.0024414062	
1740127249926	-0.015792847	
1740127249927	-0.0066375732	
1740127249928	-0.010681152	
1740127249929	-0.011978149	
1740127249930	0.004196167	
1740127249931	0.0012207031	
1740127249932	-0.0045776367	
1740127249933	0.0023651123	
1740127249934	0.005569458	
1740127249935	0.0032806396	
1740127249936	0.002670288	
1740127249937	0.0046539307	
1740127249938	0.0017547607	
1740127249939	-2.2888184E-4	
1740127249940	0.008239746	
1740127249941	0.0077819824	
1740127249942	-0.0066375732	
1740127249943	-0.017166138	
1740127249944	-0.012207031	
1740127249945	-0.0011444092	
1740127249946	7.6293945E-4	
1740127249947	0.0	
1740127249948	0.0019836426	
1740127249949	-0.0012969971	
1740127249950	-0.0036621094	
1740127249951	2.2888184E-4	
1740127249952	7.6293945E-5	
1740127249953	-0.004501343	
1740127249954	-0.00579834	
1740127249955	-0.0020599365	
1740127249956	0.0019073486	
1740127249957	0.0025177002	
1740127249958	0.0045776367	
1740127249959	0.007247925	
1740127249960	0.0046539307	
1740127249961	3.8146973E-4	
1740127249962	-0.0010681152	
1740127249963	-0.003967285	
1740127249964	-0.0016021729	
1740127249965	3.8146973E-4	
1740127249966	-0.0019836426	
1740127249967	-0.0035858154	
1740127249968	-7.6293945E-4	
1740127249969	0.0064086914	
1740127249970	0.008087158	
1740127249971	0.011672974	
1740127249972	-3.0517578E-4	
1740127249973	-0.01083374	
1740127249974	-0.0032806396	
1740127249975	-0.004348755	
1740127249976	8.392334E-4	
1740127249977	6.1035156E-4	
1740127249978	-0.0032043457	
1740127249979	0.0061035156	
1740127249980	0.0065612793	
1740127249981	0.0025177002	
1740127249982	-0.0048065186	
1740127249983	-0.010299683	
1740127249984	-0.0074768066	
1740127249985	-0.0051116943	
1740127249986	7.6293945E-5	
1740127249987	-0.0019836426	
1740127249988	-0.0012969971	
1740127249989	0.0064849854	
1740127249990	0.00289917	
1740127249991	-4.5776367E-4	
1740127249992	0.003967285	
1740127249993	0.00831604	
1740127249994	0.008621216	
1740127249995	0.0010681152	
1740127249996	0.0018310547	
1740127249997	0.004043579	
1740127249998	-6.1035156E-4	
1740127249999	-0.002822876	
1740127250000	-0.0050354004	
1740127250001	-0.006942749	
1740127250002	-8.392334E-4	
1740127250003	0.004425049	
1740127250004	-0.0017547607	
1740127250005	-0.007858276	
1740127250006	-0.009918213	
1740127250007	-0.0074005127	
1740127250008	-0.0032043457	
1740127250009	0.0015258789	
1740127250010	0.007858276	
1740127250011	0.0017547607	
1740127250012	-0.0031280518	
1740127250013	0.006790161	
1740127250014	0.00579834	
1740127250015	0.0019073486	
1740127250016	0.010147095	
1740127250017	0.0051116943	
1740127250018	0.0032043457	
1740127250019	-0.002670288	
1740127250020	-0.018005371	
1740127250021	-0.009002686	
1740127250022	0.0017547607	
1740127250023	-0.003967285	
1740127250024	-3.8146973E-4	
1740127250025	-0.0010681152	
1740127250026	-0.004119873	
1740127250027	4.5776367E-4	
1740127250028	-0.0048065186	
1740127250029	0.005340576	
1740127250030	0.008468628	
1740127250031	-0.0018310547	
1740127250032	0.0076293945	
1740127250033	0.004501343	
1740127250034	-0.0029754639	
1740127250035	-7.6293945E-4	
1740127250036	5.340576E-4	
1740127250037	3.0517578E-4	
1740127250038	-0.005874634	
1740127250039	-0.007019043	
1740127250040	-0.0038146973	
1740127250041	-9.1552734E-4	
1740127250042	-0.0012969971	
1740127250043	6.866455E-4	
1740127250044	0.014419556	
1740127250045	0.008392334	
1740127250046	-0.00541687	
1740127250047	-0.0011444092	
1740127250048	-0.0033569336	
1740127250049	-0.0104522705	
1740127250050	-0.0051116943	
1740127250051	0.017471313	
1740127250052	0.019760132	
1740127250053	-0.0063323975	
1740127250054	-0.011749268	
1740127250055	-0.0017547607	
1740127250056	-0.0019073486	
1740127250057	0.0022125244	
1740127250058	0.007095337	
1740127250059	0.0030517578	
1740127250060	0.005264282	
1740127250061	0.006866455	
1740127250062	-0.0077819824	
1740127250063	-0.013809204	
1740127250064	-0.009765625	
1740127250065	-0.009613037	
1740127250066	-0.0060272217	
1740127250067	-0.002670288	
1740127250068	0.0012969971	
1740127250069	-0.0012969971	
1740127250070	0.004425049	
1740127250071	0.008163452	
1740127250072	0.0051116943	
1740127250073	0.013122559	
1740127250074	-2.2888184E-4	
1740127250075	-0.013198853	
1740127250076	-0.0029754639	
1740127250077	-0.006790161	
1740127250078	-0.006866455	
1740127250079	-0.0012207031	
1740127250080	7.6293945E-4	
1740127250081	0.011520386	
1740127250082	0.005264282	
1740127250083	0.008163452	
1740127250084	0.01625061	
1740127250085	7.6293945E-4	
1740127250086	-0.006713867	
1740127250087	-0.013427734	
1740127250088	-0.014724731	
1740127250089	-0.002822876	
1740127250090	0.0035858154	
1740127250091	0.0066375732	
1740127250092	-1.5258789E-4	
1740127250093	-0.0045776367	
1740127250094	-0.001449585	
1740127250095	0.008239746	
1740127250096	0.013504028	
1740127250097	0.0025177002	
1740127250098	0.0059509277	
1740127250099	0.006942749	
1740127250100	-0.0038909912	
1740127250101	-0.0050354004	
1740127250102	0.00579834	
1740127250103	0.009155273	
1740127250104	-0.003967285	
1740127250105	-0.019302368	
1740127250106	-0.019683838	
1740127250107	-0.0065612793	
1740127250108	-0.008926392	
1740127250109	-0.009155273	
1740127250110	0.0051116943	
1740127250111	0.0045776367	
1740127250112	-4.5776367E-4	
1740127250113	0.002746582	
1740127250114	-0.0037384033	
1740127250115	-0.0015258789	
1740127250116	0.01083374	
1740127250117	0.011978149	
1740127250118	0.008850098	
1740127250119	0.0019073486	
1740127250120	0.001373291	
1740127250121	0.0048065186	
1740127250122	6.1035156E-4	
1740127250123	-6.1035156E-4	
1740127250124	-0.0033569336	
1740127250125	-0.00541687	
1740127250126	-0.006942749	
1740127250127	-0.0049591064	
1740127250128	7.6293945E-5	
1740127250129	-0.0025177002	
1740127250130	0.004196167	
1740127250131	0.005874634	
1740127250132	-0.0025177002	
1740127250133	-0.00289917	
1740127250134	-0.0035095215	
1740127250135	-0.002746582	
1740127250136	-0.0046539307	
1740127250137	-0.0051879883	
1740127250138	6.866455E-4	
1740127250139	-5.340576E-4	
1740127250140	7.6293945E-5	
1740127250141	0.0051879883	
1740127250142	0.0021362305	
1740127250143	0.0019836426	
1740127250144	-8.392334E-4	
1740127250145	-0.005722046	
1740127250146	-0.0036621094	
1740127250147	0.0	
1740127250148	0.0038909912	
1740127250149	0.005264282	
1740127250150	0.004272461	
1740127250151	0.002746582	
1740127250152	-0.0016784668	
1740127250153	-0.005493164	
1740127250154	-0.004348755	
1740127250155	0.0017547607	
1740127250156	0.005645752	
1740127250157	0.0060272217	
1740127250158	0.0075531006	
1740127250159	0.0032043457	
1740127250160	-0.0035095215	
1740127250161	-0.0018310547	
1740127250162	0.0016784668	
1740127250163	0.004348755	
1740127250164	-0.0050354004	
1740127250165	-0.007247925	
1740127250166	0.004196167	
1740127250167	-0.0015258789	
1740127250168	-0.0034332275	
1740127250169	-3.8146973E-4	
1740127250170	-0.004272461	
1740127250171	-0.004348755	
1740127250172	-2.2888184E-4	
1740127250173	0.0	
1740127250174	-0.007858276	
1740127250175	-0.00579834	
1740127250176	0.010299683	
1740127250177	0.009765625	
1740127250178	-0.0029754639	
1740127250179	0.0025939941	
1740127250180	0.0025939941	
1740127250181	-0.00869751	
1740127250182	-0.0012207031	
1740127250183	3.8146973E-4	
1740127250184	-0.0016784668	
1740127250185	-0.0018310547	
1740127250186	-0.007247925	
1740127250187	-0.01121521	
1740127250188	-0.0018310547	
1740127250189	0.028915405	
1740127250190	0.028305054	
1740127250191	0.0025177002	
1740127250192	-0.005874634	
1740127250193	-0.019302368	
1740127250194	-0.02067566	
1740127250195	0.0048065186	
1740127250196	0.009307861	
1740127250197	0.0	
1740127250198	3.8146973E-4	
1740127250199	-6.1035156E-4	
1740127250200	-0.011444092	
1740127250201	-0.009613037	
1740127250202	9.1552734E-4	
1740127250203	0.0018310547	
1740127250204	0.0036621094	
1740127250205	0.0021362305	
1740127250206	0.0074768066	
1740127250207	0.009918213	
1740127250208	-0.005722046	
1740127250209	-0.010070801	
1740127250210	-0.0047302246	
1740127250211	-7.6293945E-4	
1740127250212	-9.918213E-4	
1740127250213	-0.007247925	
1740127250214	-0.0018310547	
1740127250215	0.007019043	
1740127250216	0.00289917	
1740127250217	-0.0090789795	
1740127250218	-0.0051116943	
1740127250219	0.009460449	
1740127250220	0.005493164	
1740127250221	0.0032043457	
1740127250222	0.0077056885	
1740127250223	0.00541687	
1740127250224	0.007095337	
1740127250225	-7.6293945E-5	
1740127250226	-9.918213E-4	
1740127250227	0.0076293945	
1740127250228	0.001373291	
1740127250229	-0.0038146973	
1740127250230	-0.0065612793	
1740127250231	-0.0051879883	
1740127250232	-0.002822876	
1740127250233	-0.0019836426	
1740127250234	0.0021362305	
1740127250235	-0.0020599365	
1740127250236	-0.004501343	
1740127250237	-0.0037384033	
1740127250238	-0.009613037	
1740127250239	-0.008392334	
1740127250240	-0.0023651123	
1740127250241	-0.0021362305	
1740127250242	-0.0016021729	
1740127250243	-0.001449585	
1740127250244	0.0022888184	
1740127250245	0.0064849854	
1740127250246	-0.0016784668	
1740127250247	0.0030517578	
1740127250248	0.0077056885	
1740127250249	0.0034332275	
1740127250250	0.0062561035	
1740127250251	-0.0017547607	
1740127250252	1.5258789E-4	
1740127250253	0.007858276	
1740127250254	0.005569458	
1740127250255	-0.0049591064	
1740127250256	-0.01953125	
1740127250257	-0.0066375732	
1740127250258	0.008010864	
1740127250259	0.002670288	
1740127250260	9.918213E-4	
1740127250261	0.008621216	
1740127250262	0.00793457	
1740127250263	0.006866455	
1740127250264	-3.8146973E-4	
1740127250265	-0.0016021729	
1740127250266	0.0035095215	
1740127250267	-0.0050354004	
1740127250268	-0.0029754639	
1740127250269	-0.008773804	
1740127250270	-0.007019043	
1740127250271	0.007171631	
1740127250272	0.008239746	
1740127250273	0.010681152	
1740127250274	0.01159668	
1740127250275	0.0035858154	
1740127250276	-0.0104522705	
1740127250277	-0.0045776367	
1740127250278	0.009613037	
1740127250279	0.015792847	
1740127250280	-0.009384155	
1740127250281	-0.029449463	
1740127250282	-0.018081665	
1740127250283	-0.024490356	
1740127250284	-0.01335144	
1740127250285	-0.0016021729	
1740127250286	-0.008468628	
1740127250287	-3.0517578E-4	
1740127250288	0.007858276	
1740127250289	0.009231567	
1740127250290	0.0037384033	
1740127250291	9.1552734E-4	
1740127250292	0.005722046	
1740127250293	-0.0023651123	
1740127250294	0.004501343	
1740127250295	0.0066375732	
1740127250296	5.340576E-4	
1740127250297	0.005493164	
1740127250298	9.918213E-4	
1740127250299	0.0021362305	
1740127250300	0.005645752	
1740127250301	0.0063323975	
1740127250302	0.004043579	
1740127250303	-0.0025939941	
1740127250304	0.0010681152	
1740127250305	6.866455E-4	
1740127250306	0.0017547607	
1740127250307	0.0022125244	
1740127250308	-0.0074768066	
1740127250309	-0.0075531006	
1740127250310	0.0012969971	
1740127250311	0.0030517578	
1740127250312	-0.004501343	
1740127250313	-0.007019043	
1740127250314	-0.0032806396	
1740127250315	0.0017547607	
1740127250316	0.0022888184	
1740127250317	-0.0064086914	
1740127250318	-0.010604858	
1740127250319	-0.0035095215	
1740127250320	0.0051116943	
1740127250321	0.010528564	
1740127250322	0.001449585	
1740127250323	-0.004501343	
1740127250324	0.0050354004	
1740127250325	0.0050354004	
1740127250326	0.004119873	
1740127250327	0.009536743	
1740127250328	-8.392334E-4	
1740127250329	-0.009918213	
1740127250330	-7.6293945E-4	
1740127250331	0.0011444092	
1740127250332	-0.0016784668	
1740127250333	-0.0074005127	
1740127250334	-0.0073242188	
1740127250335	3.8146973E-4	
1740127250336	-6.1035156E-4	
1740127250337	0.008468628	
1740127250338	0.011978149	
1740127250339	0.009307861	
1740127250340	0.010681152	
1740127250341	0.008010864	
1740127250342	0.004196167	
1740127250343	-0.0051879883	
1740127250344	-0.010528564	
1740127250345	-0.01701355	
1740127250346	-0.029525757	
1740127250347	-0.0289917	
1740127250348	-0.015335083	
1740127250349	0.0012969971	
1740127250350	0.014343262	
1740127250351	0.013885498	
1740127250352	0.010070801	
1740127250353	0.010070801	
1740127250354	0.008621216	
1740127250355	0.008239746	
1740127250356	0.009231567	
1740127250357	0.006866455	
1740127250358	0.009155273	
1740127250359	0.009002686	
1740127250360	3.8146973E-4	
1740127250361	-0.0020599365	
1740127250362	-0.0059509277	
1740127250363	-0.012893677	
1740127250364	-0.0074768066	
1740127250365	-0.004425049	
1740127250366	-0.0015258789	
1740127250367	0.0012207031	
1740127250368	0.0065612793	
1740127250369	7.6293945E-4	
1740127250370	-0.009613037	
1740127250371	-0.0030517578	
1740127250372	-0.002746582	
1740127250373	1.5258789E-4	
1740127250374	-0.0020599365	
1740127250375	-0.0064086914	
1740127250376	0.004348755	
1740127250377	-0.015411377	
1740127250378	-0.025482178	
1740127250379	-6.1035156E-4	
1740127250380	0.0037384033	
1740127250381	0.0	
1740127250382	0.002670288	
1740127250383	0.007171631	
1740127250384	0.0077819824	
1740127250385	0.0019836426	
1740127250386	-3.0517578E-4	
1740127250387	-0.0022125244	
1740127250388	0.0017547607	
1740127250389	0.006713867	
1740127250390	0.0051879883	
1740127250391	0.0059509277	
1740127250392	0.0061798096	
1740127250393	0.006942749	
1740127250394	0.0062561035	
1740127250395	0.00793457	
1740127250396	0.0018310547	
1740127250397	-0.0077819824	
1740127250398	-0.012512207	
1740127250399	-0.007247925	
1740127250400	-0.0074768066	
1740127250401	-0.008010864	
1740127250402	9.1552734E-4	
1740127250403	0.0025939941	
1740127250404	5.340576E-4	
1740127250405	-1.5258789E-4	
1740127250406	0.0032806396	
1740127250407	0.013198853	
1740127250408	0.009384155	
1740127250409	-0.012207031	
1740127250410	-0.018234253	
1740127250411	-0.008087158	
1740127250412	-0.004272461	
1740127250413	0.0016784668	
1740127250414	0.014724731	
1740127250415	0.0104522705	
1740127250416	0.0015258789	
1740127250417	0.0016784668	
1740127250418	0.00289917	
1740127250419	0.009002686	
1740127250420	0.0036621094	
1740127250421	-0.0032043457	
1740127250422	-0.0034332275	
1740127250423	-0.009994507	
1740127250424	-0.0061035156	
1740127250425	-0.0061035156	
1740127250426	-0.0051879883	
1740127250427	3.8146973E-4	
1740127250428	-0.0011444092	
1740127250429	0.0038146973	
1740127250430	0.0032806396	
1740127250431	7.6293945E-4	
1740127250432	0.0016021729	
1740127250433	-0.0031280518	
1740127250434	-0.002822876	
1740127250435	-0.0025939941	
1740127250436	0.0023651123	
1740127250437	0.006866455	
1740127250438	3.8146973E-4	
1740127250439	5.340576E-4	
1740127250440	0.0011444092	
1740127250441	-0.0018310547	
1740127250442	-0.0022125244	
1740127250443	-5.340576E-4	
1740127250444	0.0010681152	
1740127250445	-6.1035156E-4	
1740127250446	-0.00289917	
1740127250447	-0.0037384033	
1740127250448	-0.0012207031	
1740127250449	0.0065612793	
1740127250450	0.007858276	
1740127250451	-4.5776367E-4	
1740127250452	-0.005569458	
1740127250453	1.5258789E-4	
1740127250454	-6.866455E-4	
1740127250455	-3.8146973E-4	
1740127250456	-8.392334E-4	
1740127250457	-0.0062561035	
1740127250458	-0.0020599365	
1740127250459	-8.392334E-4	
1740127250460	0.0048065186	
1740127250461	0.0018310547	
1740127250462	3.8146973E-4	
1740127250463	3.0517578E-4	
1740127250464	-0.009918213	
1740127250465	-3.8146973E-4	
1740127250466	9.918213E-4	
1740127250467	-0.0064086914	
1740127250468	-4.5776367E-4	
1740127250469	-0.0017547607	
1740127250470	-9.1552734E-4	
1740127250471	0.0025177002	
1740127250472	-0.00289917	
1740127250473	-0.004119873	
1740127250474	-0.0015258789	
1740127250475	0.0022125244	
1740127250476	0.0048828125	
1740127250477	0.00793457	
1740127250478	0.004043579	
1740127250479	0.0031280518	
1740127250480	0.004196167	
1740127250481	0.0031280518	
1740127250482	9.1552734E-4	
1740127250483	1.5258789E-4	
1740127250484	-0.0021362305	
1740127250485	-0.005264282	
1740127250486	-5.340576E-4	
1740127250487	0.0025177002	
1740127250488	-8.392334E-4	
1740127250489	-3.0517578E-4	
1740127250490	-0.0029754639	
1740127250491	-0.00541687	
1740127250492	-0.0011444092	
1740127250493	-0.0035858154	
1740127250494	-0.002746582	
1740127250495	0.0019073486	
1740127250496	0.002746582	
1740127250497	0.004272461	
1740127250498	-0.005340576	
1740127250499	-0.00541687	
1740127250500	0.0031280518	
1740127250501	-4.5776367E-4	
1740127250502	0.0048828125	
1740127250503	0.0050354004	
1740127250504	-0.0017547607	
1740127250505	0.0051116943	
1740127250506	5.340576E-4	
1740127250507	-0.002670288	
1740127250508	-2.2888184E-4	
1740127250509	-6.866455E-4	
1740127250510	0.004043579	
1740127250511	7.6293945E-4	
1740127250512	-6.1035156E-4	
1740127250513	6.866455E-4	
1740127250514	-0.003967285	
1740127250515	0.0037384033	
1740127250516	-0.0015258789	
1740127250517	-0.006942749	
1740127250518	-9.918213E-4	
1740127250519	-0.001373291	
1740127250520	6.866455E-4	
1740127250521	-0.0051879883	
1740127250522	-0.0034332275	
1740127250523	-0.0031280518	
1740127250524	-0.0016784668	
1740127250525	0.0077056885	
1740127250526	-0.0020599365	
1740127250527	0.0016784668	
1740127250528	0.005569458	
1740127250529	-4.5776367E-4	
1740127250530	0.0051879883	
1740127250531	-0.00541687	
1740127250532	-0.0048828125	
1740127250533	0.0025939941	
1740127250534	-0.0016784668	
1740127250535	0.0032043457	
1740127250536	0.0022888184	
1740127250537	4.5776367E-4	
1740127250538	-7.6293945E-5	
1740127250539	0.0051879883	
1740127250540	6.866455E-4	
1740127250541	-0.0049591064	
1740127250542	0.005340576	
1740127250543	-0.0032043457	
1740127250544	-0.005645752	
1740127250545	3.8146973E-4	
1740127250546	-0.005264282	
1740127250547	-0.0017547607	
1740127250548	-0.0010681152	
1740127250549	-0.0038909912	
1740127250550	-0.0033569336	
1740127250551	-0.0045776367	
1740127250552	-0.0049591064	
1740127250553	-0.0034332275	
1740127250554	0.0012207031	
1740127250555	6.866455E-4	
1740127250556	0.0038146973	
1740127250557	0.0064086914	
1740127250558	0.0017547607	
1740127250559	0.0064086914	
1740127250560	0.009384155	
1740127250561	6.1035156E-4	
1740127250562	-0.0046539307	
1740127250563	-0.00869751	
1740127250564	-0.0075531006	
1740127250565	0.0	
1740127250566	-0.0010681152	
1740127250567	0.0015258789	
1740127250568	3.0517578E-4	
1740127250569	0.0025177002	
1740127250570	0.0074005127	
1740127250571	-0.0016784668	
1740127250572	0.002822876	
1740127250573	0.008544922	
1740127250574	0.0015258789	
1740127250575	0.001449585	
1740127250576	0.0019073486	
1740127250577	-0.0016784668	
1740127250578	-0.0076293945	
1740127250579	-0.007247925	
1740127250580	-0.002670288	
1740127250581	0.0032043457	
1740127250582	0.01701355	
1740127250583	0.01373291	
1740127250584	-0.0038146973	
1740127250585	-0.0074005127	
1740127250586	-0.0050354004	
1740127250587	-0.0036621094	
1740127250588	-0.0017547607	
1740127250589	-0.003967285	
1740127250590	0.001373291	
1740127250591	0.0033569336	
1740127250592	-0.004043579	
1740127250593	7.6293945E-5	
1740127250594	3.8146973E-4	
1740127250595	-0.0059509277	
1740127250596	-0.0032806396	
1740127250597	-0.004425049	
1740127250598	-0.0073242188	
1740127250599	-0.0024414062	
1740127250600	0.0019836426	
1740127250601	0.006942749	
1740127250602	0.0065612793	
1740127250603	-0.0065612793	
1740127250604	-0.0064849854	
1740127250605	0.0030517578	
1740127250606	0.0011444092	
1740127250607	0.008544922	
1740127250608	0.014801025	
1740127250609	0.0050354004	
1740127250610	-0.004425049	
1740127250611	-0.015029907	
1740127250612	-0.014038086	
1740127250613	4.5776367E-4	
1740127250614	0.009155273	
1740127250615	0.0060272217	
1740127250616	0.0074005127	
1740127250617	0.0077819824	
1740127250618	-0.0017547607	
1740127250619	-3.0517578E-4	
1740127250620	-3.0517578E-4	
1740127250621	-0.0025939941	
1740127250622	-0.00289917	
1740127250623	-0.0064086914	
1740127250624	-0.0015258789	
1740127250625	-0.0036621094	
1740127250626	-0.0024414062	
1740127250627	0.009918213	
1740127250628	0.006866455	
1740127250629	-3.0517578E-4	
1740127250630	-0.010757446	
1740127250631	-0.015640259	
1740127250632	-0.0063323975	
1740127250633	-0.006866455	
1740127250634	-0.0025177002	
1740127250635	0.0050354004	
1740127250636	0.005722046	
1740127250637	0.009460449	
1740127250638	0.006790161	
1740127250639	0.0010681152	
1740127250640	0.002670288	
1740127250641	0.0020599365	
1740127250642	-6.866455E-4	
1740127250643	0.004272461	
1740127250644	0.0037384033	
1740127250645	-0.0010681152	
1740127250646	4.5776367E-4	
1740127250647	-0.0022888184	
1740127250648	-0.007095337	
1740127250649	-0.005722046	
1740127250650	-0.00541687	
1740127250651	-7.6293945E-4	
1740127250652	0.010528564	
1740127250653	0.012893677	
1740127250654	0.00541687	
1740127250655	-0.0049591064	
1740127250656	-0.007019043	
1740127250657	-0.0050354004	
1740127250658	-0.0061035156	
1740127250659	5.340576E-4	
1740127250660	0.0019073486	
1740127250661	-0.0062561035	
1740127250662	-0.012283325	
1740127250663	-0.012359619	
1740127250664	-0.007858276	
1740127250665	-0.0048828125	
1740127250666	0.0064086914	
1740127250667	0.020370483	
1740127250668	0.015792847	
1740127250669	-0.005264282	
1740127250670	-0.0035858154	
1740127250671	0.025863647	
1740127250672	0.027236938	
1740127250673	0.016860962	
1740127250674	0.020065308	
1740127250675	0.0049591064	
1740127250676	-0.023269653	
1740127250677	-0.04196167	
1740127250678	-0.03845215	
1740127250679	-0.029754639	
1740127250680	-0.01625061	
1740127250681	0.010299683	
1740127250682	0.019302368	
1740127250683	0.025482178	
1740127250684	0.04386902	
1740127250685	0.0415802	
1740127250686	0.027999878	
1740127250687	0.010910034	
1740127250688	-0.02357483	
1740127250689	-0.043945312	
1740127250690	-0.04623413	
1740127250691	-0.033721924	
1740127250692	-0.031814575	
1740127250693	-0.053329468	
1740127250694	-0.025787354	
1740127250695	0.015411377	
1740127250696	0.05065918	
1740127250697	0.06309509	
1740127250698	0.023880005	
1740127250699	0.03829956	
1740127250700	0.04096985	
1740127250701	0.013809204	
1740127250702	0.06515503	
1740127250703	0.07003784	
1740127250704	-0.0074005127	
1740127250705	-0.034942627	
1740127250706	-0.014953613	
1740127250707	-0.0061035156	
1740127250708	-0.014724731	
1740127250709	-0.06767273	
1740127250710	-0.12023926	
1740127250711	-0.12466431	
1740127250712	-0.10520935	
1740127250713	-0.079422	
1740127250714	-0.024032593	
1740127250715	0.038223267	
1740127250716	0.04966736	
1740127250717	0.03616333	
1740127250718	0.0017547607	
1740127250719	-0.033111572	
1740127250720	-0.036621094	
1740127250721	-0.007247925	
1740127250722	0.07255554	
1740127250723	0.14968872	
1740127250724	0.15563965	
1740127250725	0.13648987	
1740127250726	0.12840271	
1740127250727	0.08728027	
1740127250728	0.033569336	
1740127250729	0.004425049	
1740127250730	-0.02670288	
1740127250731	-0.080718994	
1740127250732	-0.09918213	
1740127250733	-0.07270813	
1740127250734	-0.05317688	
1740127250735	-0.027694702	
1740127250736	1.5258789E-4	
1740127250737	-0.0015258789	
1740127250738	-6.1035156E-4	
1740127250739	-0.015258789	
1740127250740	-0.04562378	
1740127250741	-0.06729126	
1740127250742	-0.07148743	
1740127250743	-0.041885376	
1740127250744	-0.018920898	
1740127250745	0.0035095215	
1740127250746	0.03463745	
1740127250747	0.02960205	
1740127250748	0.018081665	
1740127250749	0.018615723	
1740127250750	0.022888184	
1740127250751	0.021209717	
1740127250752	0.017929077	
1740127250753	0.012741089	
1740127250754	0.005340576	
1740127250755	-0.0016784668	
1740127250756	-0.014572144	
1740127250757	-0.01876831	
1740127250758	-0.008468628	
1740127250759	-0.0061035156	
1740127250760	-0.0074005127	
1740127250761	-0.005569458	
1740127250762	-0.0066375732	
1740127250763	-0.0032806396	
1740127250764	-0.005722046	
1740127250765	-0.013198853	
1740127250766	-9.918213E-4	
1740127250767	0.006713867	
1740127250768	0.0076293945	
1740127250769	0.015792847	
1740127250770	0.015182495	
1740127250771	0.012283325	
1740127250772	0.017623901	
1740127250773	0.018920898	
1740127250774	0.014953613	
1740127250775	0.016098022	
1740127250776	0.016326904	
1740127250777	0.010070801	
1740127250778	0.008468628	
1740127250779	0.004043579	
1740127250780	0.0011444092	
1740127250781	0.0034332275	
1740127250782	0.0035095215	
1740127250783	-0.008392334	
1740127250784	-0.005874634	
1740127250785	-0.0047302246	
1740127250786	-0.008544922	
1740127250787	-0.00579834	
1740127250788	-0.008850098	
1740127250789	-0.011138916	
1740127250790	-0.008621216	
1740127250791	-0.008392334	
1740127250792	-0.013198853	
1740127250793	-0.00831604	
1740127250794	-0.0065612793	
1740127250795	-0.009460449	
1740127250796	0.0035095215	
1740127250797	-0.0012207031	
1740127250798	-0.0074768066	
1740127250799	0.0048065186	
1740127250800	6.1035156E-4	
1740127250801	0.003967285	
1740127250802	0.005874634	
1740127250803	-0.0032806396	
1740127250804	0.0051879883	
1740127250805	0.006866455	
1740127250806	0.00579834	
1740127250807	0.010910034	
1740127250808	0.009613037	
1740127250809	0.004425049	
1740127250810	-0.0012207031	
1740127250811	0.0030517578	
1740127250812	0.0051116943	
1740127250813	0.002746582	
1740127250814	0.0034332275	
1740127250815	0.0037384033	
1740127250816	0.0025939941	
1740127250817	0.0074005127	
1740127250818	0.01373291	
1740127250819	0.016708374	
1740127250820	0.011138916	
1740127250821	7.6293945E-5	
1740127250822	-0.003967285	
1740127250823	-0.01335144	
1740127250824	-0.018310547	
1740127250825	-0.018310547	
1740127250826	-0.018081665	
1740127250827	-0.0020599365	
1740127250828	-0.004425049	
1740127250829	-0.0073242188	
1740127250830	0.0035858154	
1740127250831	-0.0016021729	
1740127250832	-0.0064849854	
1740127250833	-0.010223389	
1740127250834	-0.0047302246	
1740127250835	0.0023651123	
1740127250836	-0.0050354004	
1740127250837	-0.012893677	
1740127250838	-0.0146484375	
1740127250839	-4.5776367E-4	
1740127250840	0.006790161	
1740127250841	1.5258789E-4	
1740127250842	0.0021362305	
1740127250843	0.0074768066	
1740127250844	-0.0019836426	
1740127250845	0.0012207031	
1740127250846	0.009231567	
1740127250847	0.0061798096	
1740127250848	0.012130737	
1740127250849	0.011062622	
1740127250850	0.004119873	
1740127250851	0.005645752	
1740127250852	0.007858276	
1740127250853	0.021438599	
1740127250854	0.029754639	
1740127250855	0.017547607	
1740127250856	0.009841919	
1740127250857	-0.01159668	
1740127250858	-0.042266846	
1740127250859	-0.027542114	
1740127250860	0.008392334	
1740127250861	0.01876831	
1740127250862	0.016555786	
1740127250863	0.0061035156	
1740127250864	-0.0051116943	
1740127250865	-0.002746582	
1740127250866	-0.018463135	
1740127250867	-0.036239624	
1740127250868	-0.05722046	
1740127250869	-0.05241394	
1740127250870	-0.01335144	
1740127250871	0.026855469	
1740127250872	0.033187866	
1740127250873	0.034484863	
1740127250874	0.033111572	
1740127250875	0.02418518	
1740127250876	0.022201538	
1740127250877	0.01335144	
1740127250878	0.009002686	
1740127250879	0.0132751465	
1740127250880	-7.6293945E-5	
1740127250881	0.0024414062	
1740127250882	0.0077819824	
1740127250883	-0.009918213	
1740127250884	-0.010681152	
1740127250885	-0.009841919	
1740127250886	-0.0048828125	
1740127250887	-0.0011444092	
1740127250888	-0.0034332275	
1740127250889	-0.009231567	
1740127250890	-0.0048065186	
1740127250891	-0.004196167	
1740127250892	-0.007171631	
1740127250893	-0.0074005127	
1740127250894	-0.0119018555	
1740127250895	-0.009002686	
1740127250896	-0.008392334	
1740127250897	-0.008926392	
1740127250898	5.340576E-4	
1740127250899	-0.0025939941	
1740127250900	-0.0060272217	
1740127250901	0.001373291	
1740127250902	-0.010223389	
1740127250903	-0.010299683	
1740127250904	-0.012207031	
1740127250905	-0.011062622	
1740127250906	-0.00793457	
1740127250907	7.6293945E-5	
1740127250908	0.009002686	
1740127250909	0.008544922	
1740127250910	0.016403198	
1740127250911	0.029449463	
1740127250912	0.02243042	
1740127250913	0.0146484375	
1740127250914	0.010528564	
1740127250915	0.0020599365	
1740127250916	0.00579834	
1740127250917	0.0012969971	
1740127250918	-3.8146973E-4	
1740127250919	0.008087158	
1740127250920	0.00793457	
1740127250921	0.017471313	
1740127250922	0.014953613	
1740127250923	0.010147095	
1740127250924	0.01335144	
1740127250925	1.5258789E-4	
1740127250926	-0.004272461	
1740127250927	-0.0025177002	
1740127250928	-2.2888184E-4	
1740127250929	-0.0019073486	
1740127250930	-0.0035858154	
1740127250931	-0.0011444092	
1740127250932	-0.003967285	
1740127250933	-5.340576E-4	
1740127250934	-0.002746582	
1740127250935	-0.0049591064	
1740127250936	-0.0061035156	
1740127250937	-0.010757446	
1740127250938	-0.002822876	
1740127250939	-0.0024414062	
1740127250940	-0.009765625	
1740127250941	-0.0077056885	
1740127250942	-0.00831604	
1740127250943	-0.0047302246	
1740127250944	0.0012969971	
1740127250945	-0.0012969971	
1740127250946	-0.0048065186	
1740127250947	-0.0060272217	
1740127250948	-0.0033569336	
1740127250949	-0.00541687	
1740127250950	-0.018081665	
1740127250951	-0.020141602	
1740127250952	-0.013885498	
1740127250953	-0.005264282	
1740127250954	0.0015258789	
1740127250955	0.0038909912	
1740127250956	0.0036621094	
1740127250957	0.0023651123	
1740127250958	0.006866455	
1740127250959	0.013427734	
1740127250960	0.008239746	
1740127250961	0.004425049	
1740127250962	0.0047302246	
1740127250963	-3.0517578E-4	
1740127250964	-0.0016784668	
1740127250965	7.6293945E-4	
1740127250966	0.004119873	
1740127250967	-0.0012207031	
1740127250968	-0.0019836426	
1740127250969	0.020217896	
1740127250970	0.03364563	
1740127250971	0.03440857	
1740127250972	0.024337769	
1740127250973	-0.004425049	
1740127250974	-0.027618408	
1740127250975	-0.013504028	
1740127250976	-0.0077819824	
1740127250977	-0.037765503	
1740127250978	-0.034866333	
1740127250979	-0.008544922	
1740127250980	0.0038909912	
1740127250981	0.0077056885	
1740127250982	0.0035095215	
1740127250983	0.012741089	
1740127250984	0.012893677	
1740127250985	0.005264282	
1740127250986	0.00869751	
1740127250987	0.016555786	
1740127250988	0.014801025	
1740127250989	0.00541687	
1740127250990	0.0047302246	
1740127250991	0.006866455	
1740127250992	0.009307861	
1740127250993	0.0060272217	
1740127250994	0.0060272217	
1740127250995	-0.0010681152	
1740127250996	0.0038909912	
1740127250997	-0.002746582	
1740127250998	-0.012283325	
1740127250999	-0.008621216	
1740127251000	-0.01777649	
1740127251001	-0.00793457	
1740127251002	0.006790161	
1740127251003	-0.0012207031	
1740127251004	9.918213E-4	
1740127251005	-0.002670288	
1740127251006	0.002670288	
1740127251007	0.0034332275	
1740127251008	-6.866455E-4	
1740127251009	0.008087158	
1740127251010	0.004272461	
1740127251011	7.6293945E-5	
1740127251012	-0.005874634	
1740127251013	-0.010910034	
1740127251014	-0.006942749	
1740127251015	-0.019302368	
1740127251016	-0.027008057	
1740127251017	-0.023498535	
1740127251018	-0.0104522705	
1740127251019	-0.0024414062	
1740127251020	-0.00869751	
1740127251021	-0.0035858154	
1740127251022	0.011138916	
1740127251023	0.00831604	
1740127251024	0.00793457	
1740127251025	0.009002686	
1740127251026	0.016403198	
1740127251027	0.019073486	
1740127251028	0.021209717	
1740127251029	0.02571106	
1740127251030	0.008850098	
1740127251031	-0.0017547607	
1740127251032	-0.006942749	
1740127251033	-0.014266968	
1740127251034	-0.007095337	
1740127251035	-0.0051879883	
1740127251036	-0.0059509277	
1740127251037	0.0	
1740127251038	0.0050354004	
1740127251039	0.007171631	
1740127251040	0.0048065186	
1740127251041	8.392334E-4	
1740127251042	0.004348755	
1740127251043	0.0020599365	
1740127251044	0.0012969971	
1740127251045	0.0032806396	
1740127251046	0.004043579	
1740127251047	0.008773804	
1740127251048	0.006790161	
1740127251049	-7.6293945E-4	
1740127251050	0.0019073486	
1740127251051	0.013809204	
1740127251052	0.0	
1740127251053	-0.0073242188	
1740127251054	-0.001449585	
1740127251055	-0.0016784668	
1740127251056	-0.0018310547	
1740127251057	-0.002746582	
1740127251058	-7.6293945E-4	
1740127251059	-0.0031280518	
1740127251060	-0.008773804	
1740127251061	-0.0075531006	
1740127251062	8.392334E-4	
1740127251063	-0.0051116943	
1740127251064	-0.012512207	
1740127251065	-0.0047302246	
1740127251066	-0.0035095215	
1740127251067	-0.004043579	
1740127251068	-8.392334E-4	
1740127251069	-0.004272461	
1740127251070	-0.001373291	
1740127251071	0.0029754639	
1740127251072	-9.918213E-4	
1740127251073	-0.0064849854	
1740127251074	-0.0073242188	
1740127251075	0.0119018555	
1740127251076	0.0074768066	
1740127251077	-0.005722046	
1740127251078	-5.340576E-4	
1740127251079	-0.0019073486	
1740127251080	0.0024414062	
1740127251081	0.0025177002	
1740127251082	-0.0020599365	
1740127251083	-0.0036621094	
1740127251084	0.006866455	
1740127251085	0.01121521	
1740127251086	-0.018920898	
1740127251087	-0.021591187	
1740127251088	0.020446777	
1740127251089	0.022583008	
1740127251090	0.0016021729	
1740127251091	0.012283325	
1740127251092	0.01625061	
1740127251093	0.006790161	
1740127251094	-0.011672974	
1740127251095	-0.018615723	
1740127251096	-0.002822876	
1740127251097	0.008850098	
1740127251098	0.016708374	
1740127251099	0.01876831	
1740127251100	0.006942749	
1740127251101	0.0023651123	
1740127251102	0.0023651123	
1740127251103	-0.0048065186	
1740127251104	-0.0032806396	
1740127251105	0.0061798096	
1740127251106	0.0035095215	
1740127251107	-0.004043579	
1740127251108	-9.918213E-4	
1740127251109	0.00831604	
1740127251110	0.0061035156	
1740127251111	0.005493164	
1740127251112	-0.03036499	
1740127251113	-0.037078857	
1740127251114	-0.03036499	
1740127251115	-0.042877197	
1740127251116	-0.027923584	
1740127251117	-0.018081665	
1740127251118	0.011291504	
1740127251119	0.028076172	
1740127251120	0.01663208	
1740127251121	0.029830933	
1740127251122	0.016174316	
1740127251123	0.005340576	
1740127251124	0.008850098	
1740127251125	0.002746582	
1740127251126	0.021057129	
1740127251127	0.02670288	
1740127251128	0.025177002	
1740127251129	0.024795532	
1740127251130	0.024108887	
1740127251131	0.020523071	
1740127251132	0.01083374	
1740127251133	-6.1035156E-4	
1740127251134	-0.025177002	
1740127251135	-0.05722046	
1740127251136	-0.07148743	
1740127251137	-0.05821228	
1740127251138	-0.036087036	
1740127251139	-0.02670288	
1740127251140	-0.033950806	
1740127251141	-0.012588501	
1740127251142	0.02571106	
1740127251143	0.051651	
1740127251144	0.07385254	
1740127251145	0.07873535	
1740127251146	0.07072449	
1740127251147	0.043411255	
1740127251148	9.918213E-4	
1740127251149	-0.03112793	
1740127251150	-0.06919861	
1740127251151	-0.07896423	
1740127251152	-0.044021606	
1740127251153	-0.013885498	
1740127251154	0.016479492	
1740127251155	0.029067993	
1740127251156	0.031433105	
1740127251157	0.025482178	
1740127251158	-0.007858276	
1740127251159	-0.032958984	
1740127251160	-0.045700073	
1740127251161	-0.04837036	
1740127251162	-0.019226074	
1740127251163	0.031051636	
1740127251164	0.046463013	
1740127251165	0.054244995	
1740127251166	0.0793457	
1740127251167	0.05882263	
1740127251168	0.020217896	
1740127251169	-0.016479492	
1740127251170	-0.045547485	
1740127251171	-0.04508972	
1740127251172	-0.032730103	
1740127251173	0.004501343	
1740127251174	0.032958984	
1740127251175	0.068740845	
1740127251176	0.09414673	
1740127251177	0.06790161	
1740127251178	0.03845215	
1740127251179	-0.01991272	
1740127251180	-0.098724365	
1740127251181	-0.104141235	
1740127251182	-0.081710815	
1740127251183	-0.10612488	
1740127251184	-0.13938904	
1740127251185	-0.13336182	
1740127251186	-0.08354187	
1740127251187	-0.059661865	
1740127251188	-0.028762817	
1740127251189	0.047073364	
1740127251190	0.08117676	
1740127251191	0.08728027	
1740127251192	0.08842468	
1740127251193	0.055847168	
1740127251194	0.039520264	
1740127251195	0.07217407	
1740127251196	0.13816833	
1740127251197	0.1776886	
1740127251198	0.12084961	
1740127251199	0.01777649	
1740127251200	-0.041275024	
1740127251201	-0.043945312	
1740127251202	-0.04714966	
1740127251203	-0.07080078	
1740127251204	-0.05493164	
1740127251205	0.011138916	
1740127251206	0.001373291	
1740127251207	-0.0705719	
1740127251208	-0.030899048	
1740127251209	0.061798096	
1740127251210	0.13565063	
1740127251211	0.15663147	
1740127251212	0.050964355	
1740127251213	-0.05065918	
1740127251214	-0.10726929	
1740127251215	-0.15533447	
1740127251216	-0.15144348	
1740127251217	-0.12901306	
1740127251218	-0.07865906	
1740127251219	-0.0029754639	
1740127251220	0.038986206	
1740127251221	0.07965088	
1740127251222	0.082473755	
1740127251223	0.09399414	
1740127251224	0.12489319	
1740127251225	0.104904175	
1740127251226	0.09010315	
1740127251227	0.014419556	
1740127251228	-0.13450623	
1740127251229	-0.18875122	
1740127251230	-0.19813538	
1740127251231	-0.18005371	
1740127251232	-0.15464783	
1740127251233	-0.12054443	
1740127251234	-0.099105835	
1740127251235	-0.075149536	
1740127251236	-0.0010681152	
1740127251237	0.02494812	
1740127251238	0.03074646	
1740127251239	0.08720398	
1740127251240	0.121917725	
1740127251241	0.10543823	
1740127251242	0.07972717	
1740127251243	0.054244995	
1740127251244	0.06942749	
1740127251245	0.111846924	
1740127251246	0.09666443	
1740127251247	0.07865906	
1740127251248	0.114364624	
1740127251249	0.1399231	
1740127251250	0.13023376	
1740127251251	0.10772705	
1740127251252	0.057144165	
1740127251253	-0.010910034	
1740127251254	-9.918213E-4	
1740127251255	0.034942627	
1740127251256	-0.0012969971	
1740127251257	-0.018692017	
1740127251258	0.0077819824	
1740127251259	0.009002686	
1740127251260	-0.0061798096	
1740127251261	-0.034179688	
1740127251262	-0.06187439	
1740127251263	-0.080947876	
1740127251264	-0.10551453	
1740127251265	-0.09841919	
1740127251266	-0.10368347	
1740127251267	-0.128479	
1740127251268	-0.10772705	
1740127251269	-0.09597778	
1740127251270	-0.09513855	
1740127251271	-0.0957489	
1740127251272	-0.1210022	
1740127251273	-0.10147095	
1740127251274	-0.07766724	
1740127251275	-0.07423401	
1740127251276	-0.04348755	
1740127251277	-0.0076293945	
1740127251278	0.021591187	
1740127251279	0.026550293	
1740127251280	0.051116943	
1740127251281	0.07713318	
1740127251282	0.08148193	
1740127251283	0.089645386	
1740127251284	0.096206665	
1740127251285	0.10269165	
1740127251286	0.1096344	
1740127251287	0.089416504	
1740127251288	0.07774353	
1740127251289	0.079574585	
1740127251290	0.068359375	
1740127251291	0.056915283	
1740127251292	0.027313232	
1740127251293	0.012969971	
1740127251294	0.019760132	
1740127251295	0.050048828	
1740127251296	0.0730896	
1740127251297	0.03364563	
1740127251298	-0.0032806396	
1740127251299	0.005722046	
1740127251300	0.008468628	
1740127251301	-0.010528564	
1740127251302	-0.030288696	
1740127251303	-0.065841675	
1740127251304	-0.08857727	
1740127251305	-0.07270813	
1740127251306	-0.050354004	
1740127251307	-0.03425598	
1740127251308	-0.022888184	
1740127251309	-0.020751953	
1740127251310	-0.032577515	
1740127251311	-0.015640259	
1740127251312	0.017471313	
1740127251313	-9.918213E-4	
1740127251314	-0.027923584	
1740127251315	-0.042877197	
1740127251316	-0.06347656	
1740127251317	-0.037231445	
1740127251318	0.009384155	
1740127251319	0.038757324	
1740127251320	0.07675171	
1740127251321	0.076675415	
1740127251322	0.022888184	
1740127251323	-0.037231445	
1740127251324	-0.06484985	
1740127251325	-0.052719116	
1740127251326	-0.04638672	
1740127251327	-0.038986206	
1740127251328	-0.017089844	
1740127251329	0.015640259	
1740127251330	0.04096985	
1740127251331	0.01586914	
1740127251332	0.0059509277	
1740127251333	0.03692627	
1740127251334	0.034332275	
1740127251335	-0.043640137	
1740127251336	-0.11505127	
1740127251337	-0.07972717	
1740127251338	-0.0030517578	
1740127251339	0.027542114	
1740127251340	-0.0048828125	
1740127251341	-0.04989624	
1740127251342	-0.107803345	
1740127251343	-0.120773315	
1740127251344	0.0011444092	
1740127251345	0.10620117	
1740127251346	0.17204285	
1740127251347	0.15830994	
1740127251348	0.078811646	
1740127251349	0.078048706	
1740127251350	0.07865906	
1740127251351	0.05836487	
1740127251352	0.052947998	
1740127251353	0.05355835	
1740127251354	0.07110596	
1740127251355	0.042800903	
1740127251356	0.008010864	
1740127251357	7.6293945E-4	
1740127251358	-0.02128601	
1740127251359	-0.031585693	
1740127251360	-0.033340454	
1740127251361	-0.018234253	
1740127251362	0.028762817	
1740127251363	0.026321411	
1740127251364	-0.0132751465	
1740127251365	-0.043945312	
1740127251366	-0.08338928	
1740127251367	-0.08117676	
1740127251368	-0.044174194	
1740127251369	-0.03425598	
1740127251370	-0.010223389	
1740127251371	-0.01991272	
1740127251372	-0.04928589	
1740127251373	-0.059280396	
1740127251374	-0.06919861	
1740127251375	-0.052871704	
1740127251376	-0.04272461	
1740127251377	-0.02784729	
1740127251378	-0.0018310547	
1740127251379	0.011291504	
1740127251380	0.025100708	
1740127251381	0.004501343	
1740127251382	-0.029373169	
1740127251383	-0.018692017	
1740127251384	0.014877319	
1740127251385	0.04966736	
1740127251386	0.056991577	
1740127251387	0.056991577	
1740127251388	0.06309509	
1740127251389	0.047607422	
1740127251390	0.031433105	
1740127251391	0.012130737	
1740127251392	-0.018081665	
1740127251393	-0.02708435	
1740127251394	-0.031051636	
1740127251395	-0.019073486	
1740127251396	0.015106201	
1740127251397	0.015945435	
1740127251398	-0.03479004	
1740127251399	-0.0090789795	
1740127251400	0.036392212	
1740127251401	0.005645752	
1740127251402	0.019454956	
1740127251403	0.028915405	
1740127251404	0.015487671	
1740127251405	0.020828247	
1740127251406	0.009994507	
1740127251407	0.012130737	
1740127251408	0.01411438	
1740127251409	0.006713867	
1740127251410	0.0033569336	
1740127251411	-0.014801025	
1740127251412	-0.017547607	
1740127251413	-0.014953613	
1740127251414	0.003967285	
1740127251415	-4.5776367E-4	
1740127251416	-0.01876831	
1740127251417	-0.01373291	
1740127251418	-0.008087158	
1740127251419	0.0018310547	
1740127251420	-0.015258789	
1740127251421	-0.019378662	
1740127251422	-0.0048828125	
1740127251423	-0.045013428	
1740127251424	-0.054016113	
1740127251425	-0.032348633	
1740127251426	-0.009231567	
1740127251427	0.015182495	
1740127251428	0.005493164	
1740127251429	0.012893677	
1740127251430	0.017471313	
1740127251431	0.027313232	
1740127251432	0.042037964	
1740127251433	0.03845215	
1740127251434	0.025634766	
1740127251435	0.0036621094	
1740127251436	-0.020523071	
1740127251437	-0.007095337	
1740127251438	0.037002563	
1740127251439	0.026321411	
1740127251440	5.340576E-4	
1740127251441	-7.6293945E-5	
1740127251442	-0.012207031	
1740127251443	-0.0104522705	
1740127251444	0.01335144	
1740127251445	0.046463013	
1740127251446	0.042648315	
1740127251447	0.014801025	
1740127251448	0.042114258	
1740127251449	0.05317688	
1740127251450	0.01373291	
1740127251451	-0.028457642	
1740127251452	-0.032043457	
1740127251453	-0.022354126	
1740127251454	-0.044708252	
1740127251455	-0.022506714	
1740127251456	-0.010147095	
1740127251457	-0.048217773	
1740127251458	-0.033798218	
1740127251459	-0.021057129	
1740127251460	-0.018157959	
1740127251461	-0.0046539307	
1740127251462	-0.029449463	
1740127251463	-0.04234314	
1740127251464	-0.027389526	
1740127251465	-0.02418518	
1740127251466	-0.015640259	
1740127251467	0.016098022	
1740127251468	0.06362915	
1740127251469	0.04425049	
1740127251470	-0.015792847	
1740127251471	-0.026245117	
1740127251472	-0.014266968	
1740127251473	0.0063323975	
1740127251474	0.0104522705	
1740127251475	0.010757446	
1740127251476	0.023422241	
1740127251477	0.016555786	
1740127251478	0.004425049	
1740127251479	-0.016326904	
1740127251480	-0.019454956	
1740127251481	0.0066375732	
1740127251482	-0.004348755	
1740127251483	-0.004119873	
1740127251484	0.035858154	
1740127251485	0.047454834	
1740127251486	0.026473999	
1740127251487	0.002746582	
1740127251488	-0.01083374	
1740127251489	-0.013504028	
1740127251490	-0.013656616	
1740127251491	-0.0022125244	
1740127251492	0.025634766	
1740127251493	0.049057007	
1740127251494	0.053329468	
1740127251495	0.037612915	
1740127251496	0.010147095	
1740127251497	-0.01625061	
1740127251498	-0.016174316	
1740127251499	-0.021514893	
1740127251500	-0.01411438	
1740127251501	-0.009918213	
1740127251502	-0.018234253	
1740127251503	-0.017547607	
1740127251504	-0.019683838	
1740127251505	-0.019760132	
1740127251506	-0.033111572	
1740127251507	-0.037460327	
1740127251508	-0.051116943	
1740127251509	-0.046081543	
1740127251510	-0.0090789795	
1740127251511	-0.016098022	
1740127251512	-0.008544922	
1740127251513	0.009689331	
1740127251514	0.029449463	
1740127251515	0.04486084	
1740127251516	0.037841797	
1740127251517	0.03036499	
1740127251518	0.034713745	
1740127251519	0.04135132	
1740127251520	0.020599365	
1740127251521	0.0016021729	
1740127251522	0.03227234	
1740127251523	0.032806396	
1740127251524	0.012969971	
1740127251525	0.0074768066	
1740127251526	-0.013427734	
1740127251527	-0.03753662	
1740127251528	-0.050735474	
1740127251529	-0.03791809	
1740127251530	-0.025634766	
1740127251531	-0.012054443	
1740127251532	0.031967163	
1740127251533	0.06347656	
1740127251534	0.0315094	
1740127251535	0.019607544	
1740127251536	0.0617218	
1740127251537	0.030899048	
1740127251538	-0.043792725	
1740127251539	-0.053482056	
1740127251540	-0.012054443	
1740127251541	0.01449585	
1740127251542	0.00289917	
1740127251543	-0.014572144	
1740127251544	-0.014877319	
1740127251545	-0.013885498	
1740127251546	-0.03616333	
1740127251547	-0.049438477	
1740127251548	-0.027694702	
1740127251549	-0.01625061	
1740127251550	-0.015792847	
1740127251551	6.1035156E-4	
1740127251552	0.0104522705	
1740127251553	0.007095337	
1740127251554	0.006942749	
1740127251555	0.016784668	
1740127251556	0.026473999	
1740127251557	0.018081665	
1740127251558	0.010681152	
1740127251559	0.0049591064	
1740127251560	0.015106201	
1740127251561	0.030517578	
1740127251562	0.02822876	
1740127251563	0.02609253	
1740127251564	0.018157959	
1740127251565	-0.009841919	
1740127251566	-0.044631958	
1740127251567	-0.03501892	
1740127251568	-0.059432983	
1740127251569	-0.07148743	
1740127251570	0.010681152	
1740127251571	0.057144165	
1740127251572	0.02861023	
1740127251573	0.028533936	
1740127251574	0.02128601	
1740127251575	0.024642944	
1740127251576	0.03807068	
1740127251577	-0.029067993	
1740127251578	-0.03211975	
1740127251579	-0.012207031	
1740127251580	-0.042495728	
1740127251581	-0.052642822	
1740127251582	-0.058746338	
1740127251583	-0.046844482	
1740127251584	-0.017089844	
1740127251585	0.016555786	
1740127251586	6.1035156E-4	
1740127251587	-0.0059509277	
1740127251588	0.086746216	
1740127251589	0.1374054	
1740127251590	0.114974976	
1740127251591	0.03715515	
1740127251592	-0.038146973	
1740127251593	-0.04096985	
1740127251594	-0.069503784	
1740127251595	-0.030212402	
1740127251596	-0.0048828125	
1740127251597	-0.0743103	
1740127251598	-0.042800903	
1740127251599	-0.04196167	
1740127251600	-7.6293945E-5	
1740127251601	0.07102966	
1740127251602	0.026016235	
1740127251603	-0.04058838	
1740127251604	-0.16716003	
1740127251605	-0.2707672	
1740127251606	-0.10902405	
1740127251607	0.16342163	
1740127251608	0.19309998	
1740127251609	0.11657715	
1740127251610	0.12496948	
1740127251611	0.15464783	
1740127251612	0.2217865	
1740127251613	0.22262573	
1740127251614	0.18455505	
1740127251615	0.09147644	
1740127251616	-0.13206482	
1740127251617	-0.19073486	
1740127251618	-0.009002686	
1740127251619	0.20454407	
1740127251620	0.17631531	
1740127251621	-0.057296753	
1740127251622	-0.24803162	
1740127251623	-0.35255432	
1740127251624	-0.23979187	
1740127251625	-0.11764526	
1740127251626	-0.12237549	
1740127251627	-0.1058197	
1740127251628	-0.08743286	
1740127251629	-0.05317688	
1740127251630	-0.04600525	
1740127251631	-0.015258789	
1740127251632	0.052871704	
1740127251633	0.006713867	
1740127251634	0.005493164	
1740127251635	0.06378174	
1740127251636	0.0415802	
1740127251637	0.017623901	
1740127251638	0.012664795	
1740127251639	0.04623413	
1740127251640	0.04989624	
1740127251641	0.025024414	
1740127251642	0.034866333	
1740127251643	0.056610107	
1740127251644	0.10726929	
1740127251645	0.071258545	
1740127251646	-3.0517578E-4	
1740127251647	0.039978027	
1740127251648	0.13061523	
1740127251649	0.2558899	
1740127251650	0.24917603	
1740127251651	-0.028457642	
1740127251652	-0.1309967	
1740127251653	-0.11947632	
1740127251654	-0.14152527	
1740127251655	0.16708374	
1740127251656	0.2684784	
1740127251657	0.031433105	
1740127251658	0.06309509	
1740127251659	0.0566864	
1740127251660	-0.28511047	
1740127251661	-0.5219269	
1740127251662	-0.45578003	
1740127251663	-0.10368347	
1740127251664	0.22247314	
1740127251665	0.12626648	
1740127251666	0.037612915	
1740127251667	0.036392212	
1740127251668	-0.03967285	
1740127251669	-0.06576538	
1740127251670	-0.0868988	
1740127251671	-0.09803772	
1740127251672	-0.22224426	
1740127251673	-0.28175354	
1740127251674	-0.18676758	
1740127251675	-0.07720947	
1740127251676	0.17501831	
1740127251677	0.41046143	
1740127251678	0.36865234	
1740127251679	0.2205658	
1740127251680	0.15083313	
1740127251681	0.19927979	
1740127251682	0.27191162	
1740127251683	-0.019226074	
1740127251684	-0.4322052	
1740127251685	-0.31700134	
1740127251686	0.13320923	
1740127251687	0.4245758	
1740127251688	0.5117798	
1740127251689	0.42945862	
1740127251690	0.14808655	
1740127251691	-0.16944885	
1740127251692	-0.23490906	
1740127251693	-0.19584656	
1740127251694	-0.3956604	
1740127251695	-0.5043793	
1740127251696	-0.40496826	
1740127251697	-0.35186768	
1740127251698	-0.01953125	
1740127251699	0.23529053	
1740127251700	-0.06317139	
1740127251701	-0.12756348	
1740127251702	0.05256653	
1740127251703	-0.018539429	
1740127251704	0.19485474	
1740127251705	0.493927	
1740127251706	0.42884827	
1740127251707	0.073776245	
1740127251708	-0.34866333	
1740127251709	-0.34233093	
1740127251710	-0.18127441	
1740127251711	-0.1398468	
1740127251712	-0.07286072	
1740127251713	-0.1713562	
1740127251714	-0.18417358	
1740127251715	-0.03501892	
1740127251716	0.19477844	
1740127251717	0.26435852	
1740127251718	-0.04890442	
1740127251719	-0.038604736	
1740127251720	0.42366028	
1740127251721	0.6199646	
1740127251722	0.308609	
1740127251723	-0.12054443	
1740127251724	-0.2078247	
1740127251725	0.083999634	
1740127251726	0.2771759	
1740127251727	0.16159058	
1740127251728	0.018157959	
1740127251729	-0.13053894	
1740127251730	-0.07675171	
1740127251731	0.10482788	
1740127251732	0.041275024	
1740127251733	-0.071258545	
1740127251734	-0.08003235	
1740127251735	-0.09597778	
1740127251736	-0.07637024	
1740127251737	-0.0016021729	
1740127251738	-0.08453369	
1740127251739	-0.22033691	
1740127251740	-0.06690979	
1740127251741	-0.07774353	
1740127251742	-0.49247742	
1740127251743	-0.60546875	
1740127251744	-0.3100586	
1740127251745	0.09429932	
1740127251746	0.19866943	
1740127251747	0.0049591064	
1740127251748	0.044937134	
1740127251749	0.111083984	
1740127251750	0.015029907	
1740127251751	0.06378174	
1740127251752	0.14915466	
1740127251753	0.24856567	
1740127251754	0.22331238	
1740127251755	0.05393982	
1740127251756	0.06530762	
1740127251757	0.07537842	
1740127251758	0.07926941	
1740127251759	0.11444092	
1740127251760	0.058517456	
1740127251761	0.057907104	
1740127251762	0.03517151	
1740127251763	0.008392334	
1740127251764	0.02319336	
1740127251765	-0.006713867	
1740127251766	-0.0032043457	
1740127251767	-0.0034332275	
1740127251768	-0.0065612793	
1740127251769	0.01586914	
1740127251770	4.5776367E-4	
1740127251771	-0.026931763	
1740127251772	-0.05531311	
1740127251773	-0.080337524	
1740127251774	-0.084991455	
1740127251775	-0.078430176	
1740127251776	-0.072631836	
1740127251777	-0.0793457	
1740127251778	-0.03425598	
1740127251779	-6.866455E-4	
1740127251780	0.014953613	
1740127251781	0.04638672	
1740127251782	-0.015411377	
1740127251783	-0.14198303	
1740127251784	-0.14663696	
1740127251785	-0.021820068	
1740127251786	0.060272217	
1740127251787	0.11009216	
1740127251788	0.15922546	
1740127251789	0.12123108	
1740127251790	0.069503784	
1740127251791	0.022354126	
1740127251792	-0.036087036	
1740127251793	-0.03593445	
1740127251794	-0.03288269	
1740127251795	-0.053329468	
1740127251796	-0.03364563	
1740127251797	-0.037841797	
1740127251798	-0.033721924	
1740127251799	0.0016021729	
1740127251800	-0.009613037	
1740127251801	-0.0032043457	
1740127251802	0.0060272217	
1740127251803	0.01411438	
1740127251804	0.022354126	
1740127251805	0.016098022	
1740127251806	0.02243042	
1740127251807	0.02571106	
1740127251808	0.022583008	
1740127251809	0.033798218	
1740127251810	0.02532959	
1740127251811	0.02166748	
1740127251812	0.027618408	
1740127251813	0.0090789795	
1740127251814	0.010375977	
1740127251815	0.013122559	
1740127251816	-0.0064849854	
1740127251817	0.007247925	
1740127251818	-0.008392334	
1740127251819	-0.020751953	
1740127251820	-0.0060272217	
1740127251821	-0.016479492	
1740127251822	-0.017547607	
1740127251823	-0.015640259	
1740127251824	-0.022888184	
1740127251825	-0.018844604	
1740127251826	-0.0047302246	
1740127251827	-0.004119873	
1740127251828	-0.007019043	
1740127251829	-0.0048065186	
1740127251830	-0.0020599365	
1740127251831	-0.008621216	
1740127251832	-0.015106201	
1740127251833	-0.023498535	
1740127251834	-0.031661987	
1740127251835	-0.031814575	
1740127251836	-0.03845215	
1740127251837	-0.03326416	
1740127251838	-0.030059814	
1740127251839	-0.02456665	
1740127251840	-0.025634766	
1740127251841	-0.004272461	
1740127251842	-0.004425049	
1740127251843	0.007019043	
1740127251844	0.02784729	
1740127251845	0.027999878	
1740127251846	0.054855347	
1740127251847	0.06072998	
1740127251848	0.0717926	
1740127251849	0.073394775	
1740127251850	0.074920654	
1740127251851	0.062561035	
1740127251852	0.06324768	
1740127251853	0.07072449	
1740127251854	0.06278992	
1740127251855	0.041275024	
1740127251856	0.014572144	
1740127251857	0.0132751465	
1740127251858	-0.013122559	
1740127251859	-0.038909912	
1740127251860	-0.044784546	
1740127251861	-0.06278992	
1740127251862	-0.072631836	
1740127251863	-0.058135986	
1740127251864	-0.032348633	
1740127251865	-4.5776367E-4	
1740127251866	0.0035858154	
1740127251867	-0.009918213	
1740127251868	-0.0019836426	
1740127251869	-0.008544922	
1740127251870	-0.015029907	
1740127251871	-0.01159668	
1740127251872	-0.024108887	
1740127251873	-0.038375854	
1740127251874	-0.08911133	
1740127251875	-0.103530884	
1740127251876	-0.05470276	
1740127251877	-0.035476685	
1740127251878	-0.011520386	
1740127251879	0.027618408	
1740127251880	0.057678223	
1740127251881	0.071258545	
1740127251882	0.041427612	
1740127251883	0.023727417	
1740127251884	0.01701355	
1740127251885	-0.021591187	
1740127251886	-0.040740967	
1740127251887	-0.040893555	
1740127251888	-0.044174194	
1740127251889	-0.07965088	
1740127251890	-0.08781433	
1740127251891	-0.06629944	
1740127251892	-0.039978027	
1740127251893	0.024490356	
1740127251894	0.036849976	
1740127251895	0.06858826	
1740127251896	0.101242065	
1740127251897	0.092315674	
1740127251898	0.0970459	
1740127251899	0.08369446	
1740127251900	0.07171631	
1740127251901	0.06782532	
1740127251902	0.08018494	
1740127251903	0.107040405	
1740127251904	0.12619019	
1740127251905	0.11054993	
1740127251906	0.05760193	
1740127251907	0.016098022	
1740127251908	-0.035629272	
1740127251909	-0.08300781	
1740127251910	-0.08338928	
1740127251911	-0.064315796	
1740127251912	-0.05821228	
1740127251913	-0.061416626	
1740127251914	-0.06668091	
1740127251915	-0.07789612	
1740127251916	-0.062026978	
1740127251917	-0.035247803	
1740127251918	-0.021591187	
1740127251919	-0.025787354	
1740127251920	-0.04096985	
1740127251921	-0.018005371	
1740127251922	0.0015258789	
1740127251923	-0.0018310547	
1740127251924	-0.006790161	
1740127251925	-0.016937256	
1740127251926	-0.028457642	
1740127251927	-0.028381348	
1740127251928	-0.00579834	
1740127251929	0.021209717	
1740127251930	0.033187866	
1740127251931	0.036468506	
1740127251932	0.041122437	
1740127251933	0.0541687	
1740127251934	0.04852295	
1740127251935	0.03829956	
1740127251936	0.06225586	
1740127251937	0.06614685	
1740127251938	0.03265381	
1740127251939	-0.0012969971	
1740127251940	-0.031967163	
1740127251941	-0.08163452	
1740127251942	-0.11917114	
1740127251943	-0.12054443	
1740127251944	-0.084228516	
1740127251945	-0.055541992	
1740127251946	-0.031280518	
1740127251947	-0.008163452	
1740127251948	-0.016479492	
1740127251949	-0.018081665	
1740127251950	0.020065308	
1740127251951	0.07644653	
1740127251952	0.0844574	
1740127251953	0.038375854	
1740127251954	0.004272461	
1740127251955	0.01701355	
1740127251956	0.07507324	
1740127251957	0.12901306	
1740127251958	0.12748718	
1740127251959	0.07797241	
1740127251960	0.022888184	
1740127251961	-0.014038086	
1740127251962	-0.040664673	
1740127251963	-0.063705444	
1740127251964	-0.08743286	
1740127251965	-0.08232117	
1740127251966	-0.05760193	
1740127251967	-0.05241394	
1740127251968	-0.022583008	
1740127251969	0.028076172	
1740127251970	0.011978149	
1740127251971	0.020599365	
1740127251972	0.039978027	
1740127251973	0.03555298	
1740127251974	0.052490234	
1740127251975	0.015945435	
1740127251976	-0.027770996	
1740127251977	-0.008392334	
1740127251978	0.02243042	
1740127251979	0.03265381	
1740127251980	-0.020523071	
1740127251981	-0.0390625	
1740127251982	0.012817383	
1740127251983	0.025024414	
1740127251984	0.018005371	
1740127251985	0.009689331	
1740127251986	0.0022888184	
1740127251987	-0.0011444092	
1740127251988	-0.004043579	
1740127251989	-0.020751953	
1740127251990	-0.04676819	
1740127251991	-0.067214966	
1740127251992	-0.049819946	
1740127251993	-0.061035156	
1740127251994	-0.08178711	
1740127251995	-0.050430298	
1740127251996	-0.012817383	
1740127251997	-0.002746582	
1740127251998	0.015411377	
1740127251999	0.027313232	
1740127252000	0.011291504	
1740127252001	0.03578186	
1740127252002	0.04600525	
1740127252003	0.03517151	
1740127252004	0.03387451	
1740127252005	0.03425598	
1740127252006	0.047607422	
1740127252007	0.025482178	
1740127252008	0.014953613	
1740127252009	-0.0032806396	
1740127252010	-0.043182373	
1740127252011	-0.043258667	
1740127252012	-0.028457642	
1740127252013	-0.008163452	
1740127252014	0.0060272217	
1740127252015	0.019226074	
1740127252016	0.029525757	
1740127252017	0.034103394	
1740127252018	0.0579834	
1740127252019	0.062332153	
1740127252020	0.050735474	
1740127252021	0.047836304	
1740127252022	0.034942627	
1740127252023	0.017471313	
1740127252024	0.003967285	
1740127252025	-0.0104522705	
1740127252026	-0.016021729	
1740127252027	-0.02067566	
1740127252028	-0.032424927	
1740127252029	-0.038604736	
1740127252030	-0.043563843	
1740127252031	-0.035476685	
1740127252032	-0.01121521	
1740127252033	-0.006942749	
1740127252034	-0.0035858154	
1740127252035	0.005493164	
1740127252036	-0.0010681152	
1740127252037	-0.0064849854	
1740127252038	0.0017547607	
1740127252039	0.0146484375	
1740127252040	0.026779175	
1740127252041	0.039749146	
1740127252042	0.03791809	
1740127252043	0.02281189	
1740127252044	5.340576E-4	
1740127252045	-0.035095215	
1740127252046	-0.055999756	
1740127252047	-0.06767273	
1740127252048	-0.07209778	
1740127252049	-0.06820679	
1740127252050	-0.095825195	
1740127252051	-0.09994507	
1740127252052	-0.037994385	
1740127252053	0.0036621094	
1740127252054	-0.0016021729	
1740127252055	0.001373291	
1740127252056	-6.1035156E-4	
1740127252057	0.0021362305	
1740127252058	0.009689331	
1740127252059	0.0048065186	
1740127252060	0.004196167	
1740127252061	0.01701355	
1740127252062	0.021362305	
1740127252063	0.03829956	
1740127252064	0.04119873	
1740127252065	0.041503906	
1740127252066	0.058441162	
1740127252067	0.062942505	
1740127252068	0.08239746	
1740127252069	0.07446289	
1740127252070	0.048217773	
1740127252071	0.025100708	
1740127252072	0.0051879883	
1740127252073	-0.0064849854	
1740127252074	-0.010223389	
1740127252075	0.005645752	
1740127252076	0.012207031	
1740127252077	0.01991272	
1740127252078	0.020751953	
1740127252079	0.008850098	
1740127252080	0.004501343	
1740127252081	0.008163452	
1740127252082	0.0051116943	
1740127252083	0.0020599365	
1740127252084	-0.0038909912	
1740127252085	-0.028762817	
1740127252086	-0.044174194	
1740127252087	-0.028305054	
1740127252088	-0.021362305	
1740127252089	-0.027160645	
1740127252090	-0.032730103	
1740127252091	-0.039978027	
1740127252092	-0.041732788	
1740127252093	-0.044708252	
1740127252094	-0.043563843	
1740127252095	-0.029144287	
1740127252096	-0.021057129	
1740127252097	-0.017089844	
1740127252098	0.010147095	
1740127252099	0.031204224	
1740127252100	0.022964478	
1740127252101	0.016479492	
1740127252102	-0.018157959	
1740127252103	-0.034332275	
1740127252104	0.01777649	
1740127252105	0.043945312	
1740127252106	0.051879883	
1740127252107	0.050964355	
1740127252108	0.031814575	
1740127252109	0.026855469	
1740127252110	-0.0038909912	
1740127252111	-0.027008057	
1740127252112	-0.008773804	
1740127252113	-0.011138916	
1740127252114	-0.018310547	
1740127252115	-0.01121521	
1740127252116	-0.009994507	
1740127252117	-0.015792847	
1740127252118	-0.004196167	
1740127252119	-7.6293945E-5	
1740127252120	0.00579834	
1740127252121	0.01701355	
1740127252122	0.004196167	
1740127252123	-0.011291504	
1740127252124	-0.02571106	
1740127252125	-0.02861023	
1740127252126	-0.011367798	
1740127252127	-0.004501343	
1740127252128	0.0032043457	
1740127252129	0.032196045	
1740127252130	0.055389404	
1740127252131	0.05722046	
1740127252132	0.055389404	
1740127252133	0.05088806	
1740127252134	0.046081543	
1740127252135	0.035324097	
1740127252136	0.018692017	
1740127252137	0.011749268	
1740127252138	-0.0045776367	
1740127252139	-0.020828247	
1740127252140	-0.05569458	
1740127252141	-0.074157715	
1740127252142	-0.05645752	
1740127252143	-0.036697388	
1740127252144	-0.008392334	
1740127252145	-0.0025939941	
1740127252146	-0.01586914	
1740127252147	-0.036849976	
1740127252148	-0.06225586	
1740127252149	-0.04928589	
1740127252150	-0.029830933	
1740127252151	-0.014343262	
1740127252152	0.018997192	
1740127252153	0.024032593	
1740127252154	0.009918213	
1740127252155	0.00579834	
1740127252156	0.0051879883	
1740127252157	-0.007247925	
1740127252158	-0.011291504	
1740127252159	0.0035095215	
1740127252160	0.028762817	
1740127252161	0.039901733	
1740127252162	0.025177002	
1740127252163	0.026550293	
1740127252164	0.034866333	
1740127252165	0.018844604	
1740127252166	0.038528442	
1740127252167	0.04951477	
1740127252168	0.037841797	
1740127252169	0.050354004	
1740127252170	0.06828308	
1740127252171	0.06591797	
1740127252172	0.03189087	
1740127252173	0.0019073486	
1740127252174	-0.0016021729	
1740127252175	-0.018997192	
1740127252176	-0.06904602	
1740127252177	-0.15464783	
1740127252178	-0.23162842	
1740127252179	-0.21575928	
1740127252180	-0.090408325	
1740127252181	-0.026168823	
1740127252182	0.008850098	
1740127252183	0.052871704	
1740127252184	0.05783081	
1740127252185	0.07545471	
1740127252186	0.07659912	
1740127252187	0.069503784	
1740127252188	0.06774902	
1740127252189	0.053634644	
1740127252190	0.05935669	
1740127252191	0.059432983	
1740127252192	0.036239624	
1740127252193	0.0061035156	
1740127252194	-0.005569458	
1740127252195	0.025405884	
1740127252196	0.037841797	
1740127252197	-0.0077056885	
1740127252198	-0.040740967	
1740127252199	-0.0032043457	
1740127252200	0.04371643	
1740127252201	0.04928589	
1740127252202	0.027542114	
1740127252203	0.014572144	
1740127252204	0.013504028	
1740127252205	-0.03791809	
1740127252206	-0.06355286	
1740127252207	-0.023269653	
1740127252208	-0.021743774	
1740127252209	-0.048065186	
1740127252210	-0.10650635	
1740127252211	-0.13961792	
1740127252212	-0.078430176	
1740127252213	-0.0050354004	
1740127252214	0.011978149	
1740127252215	-0.004425049	
1740127252216	-0.0075531006	
1740127252217	-0.028762817	
1740127252218	-0.026550293	
1740127252219	0.026855469	
1740127252220	0.019607544	
1740127252221	-0.03883362	
1740127252222	-0.035247803	
1740127252223	-0.006866455	
1740127252224	0.027160645	
1740127252225	0.047454834	
1740127252226	0.02029419	
1740127252227	0.03845215	
1740127252228	0.11665344	
1740127252229	0.15304565	
1740127252230	0.13198853	
1740127252231	0.06965637	
1740127252232	-0.023956299	
1740127252233	-0.060424805	
1740127252234	-0.02784729	
1740127252235	0.057754517	
1740127252236	0.091552734	
1740127252237	0.056533813	
1740127252238	0.05859375	
1740127252239	0.02998352	
1740127252240	-0.013580322	
1740127252241	-0.024032593	
1740127252242	-0.04219055	
1740127252243	-0.040664673	
1740127252244	-0.09788513	
1740127252245	-0.16662598	
1740127252246	-0.117874146	
1740127252247	-0.12512207	
1740127252248	-0.22399902	
1740127252249	-0.20927429	
1740127252250	-0.111694336	
1740127252251	0.05317688	
1740127252252	0.22773743	
1740127252253	0.23765564	
1740127252254	0.12512207	
1740127252255	0.04966736	
1740127252256	4.5776367E-4	
1740127252257	-0.014419556	
1740127252258	0.03517151	
1740127252259	0.061645508	
1740127252260	0.024261475	
1740127252261	0.035629272	
1740127252262	0.11314392	
1740127252263	0.10620117	
1740127252264	0.031814575	
1740127252265	-0.045318604	
1740127252266	-0.11268616	
1740127252267	-0.08743286	
1740127252268	-0.053100586	
1740127252269	-0.024337769	
1740127252270	-0.0011444092	
1740127252271	-0.039520264	
1740127252272	-0.069122314	
1740127252273	-0.10261536	
1740127252274	-0.08621216	
1740127252275	-0.06385803	
1740127252276	-0.08079529	
1740127252277	-0.114364624	
1740127252278	-0.097961426	
1740127252279	-0.08995056	
1740127252280	-0.038146973	
1740127252281	0.080337524	
1740127252282	0.15701294	
1740127252283	0.17532349	
1740127252284	0.14945984	
1740127252285	0.1524353	
1740127252286	0.13542175	
1740127252287	0.107040405	
1740127252288	0.11520386	
1740127252289	0.103378296	
1740127252290	0.08239746	
1740127252291	0.075531006	
1740127252292	0.056381226	
1740127252293	0.03288269	
1740127252294	0.010681152	
1740127252295	-0.01914978	
1740127252296	-0.025787354	
1740127252297	-0.047073364	
1740127252298	-0.05996704	
1740127252299	-0.056915283	
1740127252300	-0.05355835	
1740127252301	-0.035095215	
1740127252302	-0.031280518	
1740127252303	-0.036621094	
1740127252304	-0.06896973	
1740127252305	-0.122299194	
1740127252306	-0.13999939	
1740127252307	-0.15312195	
1740127252308	-0.2217102	
1740127252309	-0.26435852	
1740127252310	-0.2342987	
1740127252311	-0.005264282	
1740127252312	0.26565552	
1740127252313	0.21179199	
1740127252314	0.026779175	
1740127252315	-0.073776245	
1740127252316	-0.056610107	
1740127252317	-0.012054443	
1740127252318	-0.07141113	
1740127252319	-0.01083374	
1740127252320	0.10513306	
1740127252321	0.14427185	
1740127252322	0.1348877	
1740127252323	0.1298523	
1740127252324	0.18630981	
1740127252325	0.15144348	
1740127252326	0.06965637	
1740127252327	0.002822876	
1740127252328	-0.046157837	
1740127252329	-0.031661987	
1740127252330	-0.016479492	
1740127252331	0.019683838	
1740127252332	0.14152527	
1740127252333	0.3125763	
1740127252334	0.26313782	
1740127252335	0.04295349	
1740127252336	0.020751953	
1740127252337	0.006790161	
1740127252338	-0.037994385	
1740127252339	-0.0030517578	
1740127252340	-0.14778137	
1740127252341	-0.34240723	
1740127252342	-0.42991638	
1740127252343	-0.46440125	
1740127252344	-0.2545166	
1740127252345	0.07698059	
1740127252346	0.24085999	
1740127252347	0.22918701	
1740127252348	-0.026016235	
1740127252349	-0.1360321	
1740127252350	0.028686523	
1740127252351	-0.04928589	
1740127252352	-0.16052246	
1740127252353	-0.120162964	
1740127252354	-0.090408325	
1740127252355	0.041275024	
1740127252356	0.1285553	
1740127252357	0.18409729	
1740127252358	0.25146484	
1740127252359	0.1915741	
1740127252360	0.11657715	
1740127252361	0.03479004	
1740127252362	0.004425049	
1740127252363	0.005722046	
1740127252364	-0.06858826	
1740127252365	-0.14129639	
1740127252366	-0.1538086	
1740127252367	-0.114593506	
1740127252368	-0.06668091	
1740127252369	-0.03425598	
1740127252370	-0.012664795	
1740127252371	0.046844482	
1740127252372	0.08972168	
1740127252373	0.022277832	
1740127252374	0.024032593	
1740127252375	0.12947083	
1740127252376	0.22377014	
1740127252377	0.22987366	
1740127252378	0.16365051	
1740127252379	0.12184143	
1740127252380	0.0090789795	
1740127252381	-0.08163452	
1740127252382	-0.059661865	
1740127252383	-0.10269165	
1740127252384	-0.1687622	
1740127252385	-0.20317078	
1740127252386	-0.24612427	
1740127252387	-0.21995544	
1740127252388	-0.14419556	
1740127252389	-0.08430481	
1740127252390	-0.051574707	
1740127252391	0.059814453	
1740127252392	0.103759766	
1740127252393	-0.08811951	
1740127252394	-0.10574341	
1740127252395	0.18112183	
1740127252396	0.470047	
1740127252397	0.37239075	
1740127252398	0.100479126	
1740127252399	0.21354675	
1740127252400	0.20217896	
1740127252401	-0.07827759	
1740127252402	-0.22727966	
1740127252403	-0.27503967	
1740127252404	-0.26435852	
1740127252405	-0.29205322	
1740127252406	-0.08277893	
1740127252407	0.1777649	
1740127252408	0.13298035	
1740127252409	0.081710815	
1740127252410	0.07987976	
1740127252411	0.065841675	
1740127252412	0.022354126	
1740127252413	-0.008010864	
1740127252414	0.02670288	
1740127252415	0.016784668	
1740127252416	5.340576E-4	
1740127252417	-0.052642822	
1740127252418	-0.108566284	
1740127252419	-0.050201416	
1740127252420	-0.010986328	
1740127252421	-0.012130737	
1740127252422	-0.005874634	
1740127252423	-0.022888184	
1740127252424	-0.010681152	
1740127252425	-0.041656494	
1740127252426	-0.10772705	
1740127252427	-0.06752014	
1740127252428	-0.0016021729	
1740127252429	0.029144287	
1740127252430	0.064315796	
1740127252431	0.09681702	
1740127252432	0.11520386	
1740127252433	0.111846924	
1740127252434	0.07575989	
1740127252435	-7.6293945E-4	
1740127252436	-0.030517578	
1740127252437	0.008163452	
1740127252438	-0.018081665	
1740127252439	-0.07156372	
1740127252440	-0.08293152	
1740127252441	-0.06340027	
1740127252442	-0.05065918	
1740127252443	-0.10635376	
1740127252444	-0.14602661	
1740127252445	-0.10978699	
1740127252446	0.10261536	
1740127252447	0.2824402	
1740127252448	0.16464233	
1740127252449	0.012588501	
1740127252450	-0.0023651123	
1740127252451	-0.012359619	
1740127252452	-0.02166748	
1740127252453	0.026321411	
1740127252454	0.019760132	
1740127252455	-0.031661987	
1740127252456	-0.04524231	
1740127252457	0.0146484375	
1740127252458	0.12184143	
1740127252459	0.16395569	
1740127252460	0.06904602	
1740127252461	-0.03944397	
1740127252462	-0.08987427	
1740127252463	-0.12580872	
1740127252464	-0.1134491	
1740127252465	-0.08491516	
1740127252466	-0.041885376	
1740127252467	0.046081543	
1740127252468	0.07324219	
1740127252469	0.07041931	
1740127252470	0.114974976	
1740127252471	0.019378662	
1740127252472	-0.11604309	
1740127252473	-0.17181396	
1740127252474	-0.17578125	
1740127252475	-0.08552551	
1740127252476	-0.005874634	
1740127252477	0.09552002	
1740127252478	0.26062012	
1740127252479	0.20332336	
1740127252480	-0.10383606	
1740127252481	-0.35591125	
1740127252482	-0.25253296	
1740127252483	-0.01373291	
1740127252484	0.030822754	
1740127252485	0.052108765	
1740127252486	0.16296387	
1740127252487	0.2243042	
1740127252488	0.14892578	
1740127252489	0.0023651123	
1740127252490	-0.081710815	
1740127252491	-0.030822754	
1740127252492	0.19050598	
1740127252493	0.22697449	
1740127252494	0.005722046	
1740127252495	-0.07286072	
1740127252496	-0.088653564	
1740127252497	-0.08682251	
1740127252498	-0.031661987	
1740127252499	-0.028076172	
1740127252500	0.017166138	
1740127252501	0.10986328	
1740127252502	0.083236694	
1740127252503	-0.051345825	
1740127252504	-0.15090942	
1740127252505	-0.11268616	
1740127252506	-0.07026672	
1740127252507	-0.23643494	
1740127252508	-0.29800415	
1740127252509	-0.06317139	
1740127252510	0.103378296	
1740127252511	0.1890564	
1740127252512	0.30769348	
1740127252513	0.31547546	
1740127252514	0.3488922	
1740127252515	0.28137207	
1740127252516	0.06904602	
1740127252517	-0.023498535	
1740127252518	-0.18341064	
1740127252519	-0.3214264	
1740127252520	-0.2772522	
1740127252521	-0.23971558	
1740127252522	-0.12237549	
1740127252523	-0.08758545	
1740127252524	-0.089645386	
1740127252525	0.0076293945	
1740127252526	0.027999878	
1740127252527	0.0011444092	
1740127252528	0.026321411	
1740127252529	0.0868988	
1740127252530	0.1158905	
1740127252531	0.16319275	
1740127252532	0.13259888	
1740127252533	0.06980896	
1740127252534	0.09605408	
1740127252535	0.0015258789	
1740127252536	-0.17066956	
1740127252537	-0.21583557	
1740127252538	-0.112075806	
1740127252539	-0.002670288	
1740127252540	-0.015258789	
1740127252541	0.054016113	
1740127252542	0.05760193	
1740127252543	-0.108947754	
1740127252544	-0.13092041	
1740127252545	-0.027160645	
1740127252546	0.043029785	
1740127252547	0.11543274	
1740127252548	0.14915466	
1740127252549	0.12634277	
1740127252550	0.18318176	
1740127252551	0.1461792	
1740127252552	0.069885254	
1740127252553	-0.0022125244	
1740127252554	-0.15930176	
1740127252555	-0.11802673	
1740127252556	-0.030059814	
1740127252557	-0.013122559	
1740127252558	0.15449524	
1740127252559	0.22102356	
1740127252560	-0.0074005127	
1740127252561	-0.17326355	
1740127252562	-0.07606506	
1740127252563	-0.16845703	
1740127252564	-0.28770447	
1740127252565	-0.10482788	
1740127252566	-0.08491516	
1740127252567	-0.12298584	
1740127252568	0.058517456	
1740127252569	0.36140442	
1740127252570	0.49804688	
1740127252571	0.11558533	
1740127252572	-0.2619934	
1740127252573	-0.35507202	
1740127252574	-0.24642944	
1740127252575	-0.0065612793	
1740127252576	-0.057678223	
1740127252577	-0.04638672	
1740127252578	0.0818634	
1740127252579	0.026550293	
1740127252580	0.10108948	
1740127252581	0.19348145	
1740127252582	0.19996643	
1740127252583	0.2117157	
1740127252584	0.1462555	
1740127252585	0.033721924	
1740127252586	0.044021606	
1740127252587	0.14221191	
1740127252588	-0.02128601	
1740127252589	-0.31829834	
1740127252590	-0.38787842	
1740127252591	-0.17440796	
1740127252592	0.034713745	
1740127252593	-0.072631836	
1740127252594	-0.16487122	
1740127252595	-0.056762695	
1740127252596	0.020065308	
1740127252597	0.07858276	
1740127252598	0.2294159	
1740127252599	0.3277588	
1740127252600	0.12069702	
1740127252601	-0.01159668	
1740127252602	0.11512756	
1740127252603	0.13427734	
1740127252604	0.051345825	
1740127252605	-0.059890747	
1740127252606	-0.13542175	
1740127252607	-0.096969604	
1740127252608	-0.091171265	
1740127252609	-0.14015198	
1740127252610	-0.16937256	
1740127252611	-0.20309448	
1740127252612	-0.20927429	
1740127252613	-0.20942688	
1740127252614	-0.2519226	
1740127252615	-0.21728516	
1740127252616	-0.083465576	
1740127252617	0.37651062	
1740127252618	0.7699585	
1740127252619	0.47737122	
1740127252620	0.3049469	
1740127252621	0.26657104	
1740127252622	-0.10971069	
1740127252623	-0.27999878	
1740127252624	-0.34439087	
1740127252625	-0.27748108	
1740127252626	0.07034302	
1740127252627	0.17478943	
1740127252628	-0.026931763	
1740127252629	-0.24536133	
1740127252630	-0.23582458	
1740127252631	0.016174316	
1740127252632	0.32104492	
1740127252633	0.49812317	
1740127252634	0.2695465	
1740127252635	-0.051345825	
1740127252636	-0.25886536	
1740127252637	-0.37826538	
1740127252638	-0.27122498	
1740127252639	-0.17173767	
1740127252640	0.029296875	
1740127252641	0.14480591	
1740127252642	0.022506714	
1740127252643	0.015182495	
1740127252644	0.07965088	
1740127252645	0.2935028	
1740127252646	0.35606384	
1740127252647	-0.03112793	
1740127252648	-0.393219	
1740127252649	-0.42053223	
1740127252650	-0.03616333	
1740127252651	0.16014099	
1740127252652	0.015945435	
1740127252653	0.025100708	
1740127252654	-0.09742737	
1740127252655	-0.30845642	
1740127252656	-0.23071289	
1740127252657	0.1952362	
1740127252658	0.5267334	
1740127252659	0.50476074	
1740127252660	0.42121887	
1740127252661	0.26618958	
1740127252662	0.16281128	
1740127252663	-0.15914917	
1740127252664	-0.6175232	
1740127252665	-0.58013916	
1740127252666	-0.41610718	
1740127252667	0.117492676	
1740127252668	0.62561035	
1740127252669	0.24040222	
1740127252670	0.015640259	
1740127252671	0.12992859	
1740127252672	-0.09651184	
1740127252673	-0.31585693	
1740127252674	-0.35194397	
1740127252675	-0.3250122	
1740127252676	-0.3781128	
1740127252677	-0.31402588	
1740127252678	0.052642822	
1740127252679	0.2193451	
1740127252680	0.049362183	
1740127252681	0.0104522705	
1740127252682	0.04676819	
1740127252683	0.100860596	
1740127252684	0.28121948	
1740127252685	0.21736145	
1740127252686	-0.118255615	
1740127252687	-0.18203735	
1740127252688	0.24093628	
1740127252689	0.4486084	
1740127252690	0.17799377	
1740127252691	0.21659851	
1740127252692	0.32279968	
1740127252693	0.083465576	
1740127252694	-0.16174316	
1740127252695	-0.23139954	
1740127252696	0.023727417	
1740127252697	0.25375366	
1740127252698	0.14953613	
1740127252699	-0.13725281	
1740127252700	-0.495224	
1740127252701	-0.46951294	
1740127252702	-0.16593933	
1740127252703	-0.005645752	
1740127252704	0.11024475	
1740127252705	0.06439209	
1740127252706	-0.047836304	
1740127252707	-0.1387024	
1740127252708	-0.21911621	
1740127252709	-0.091934204	
1740127252710	-0.0016784668	
1740127252711	-0.01586914	
1740127252712	0.037841797	
1740127252713	0.07583618	
1740127252714	0.13198853	
1740127252715	0.27130127	
1740127252716	0.5897522	
1740127252717	0.59135437	
1740127252718	-0.18753052	
1740127252719	-0.76286316	
1740127252720	-0.43037415	
1740127252721	0.01953125	
1740127252722	-0.019378662	
1740127252723	-0.11528015	
1740127252724	-0.08796692	
1740127252725	-0.046310425	
1740127252726	0.032196045	
1740127252727	0.033111572	
1740127252728	0.107040405	
1740127252729	0.18867493	
1740127252730	0.14183044	
1740127252731	0.09613037	
1740127252732	0.075149536	
1740127252733	0.0146484375	
1740127252734	-0.022201538	
1740127252735	0.014190674	
1740127252736	0.02281189	
1740127252737	0.04989624	
1740127252738	0.06416321	
1740127252739	0.012283325	
1740127252740	-0.014266968	
1740127252741	-0.0090789795	
1740127252742	-0.02281189	
1740127252743	-0.031967163	
1740127252744	-0.02243042	
1740127252745	-0.01625061	
1740127252746	-0.0104522705	
1740127252747	-0.039901733	
1740127252748	-0.0717926	
1740127252749	-0.073394775	
1740127252750	-0.07644653	
1740127252751	-0.037765503	
1740127252752	0.041885376	
1740127252753	0.064315796	
1740127252754	-0.14579773	
1740127252755	-0.35476685	
1740127252756	-0.21827698	
1740127252757	0.0073242188	
1740127252758	0.05859375	
1740127252759	0.17959595	
1740127252760	0.47309875	
1740127252761	0.52207947	
1740127252762	0.23895264	
1740127252763	-0.018997192	
1740127252764	-0.13542175	
1740127252765	-0.14755249	
1740127252766	-0.07423401	
1740127252767	-0.07247925	
1740127252768	-0.07400513	
1740127252769	-0.03868103	
1740127252770	-0.04524231	
1740127252771	-0.030136108	
1740127252772	-0.030593872	
1740127252773	-0.036849976	
1740127252774	-0.02532959	
1740127252775	-0.014724731	
1740127252776	-0.009994507	
1740127252777	-0.010223389	
1740127252778	-0.014038086	
1740127252779	-0.016937256	
1740127252780	-0.01701355	
1740127252781	-0.026779175	
1740127252782	-0.022888184	
1740127252783	-0.049362183	
1740127252784	-0.062942505	
1740127252785	-0.06690979	
1740127252786	-0.061950684	
1740127252787	-0.02571106	
1740127252788	0.018997192	
1740127252789	0.09101868	
1740127252790	0.05683899	
1740127252791	0.0062561035	
1740127252792	0.036697388	
1740127252793	0.021820068	
1740127252794	0.032196045	
1740127252795	0.038909912	
1740127252796	0.024871826	
1740127252797	0.034561157	
1740127252798	0.020065308	
1740127252799	0.014266968	
1740127252800	0.0047302246	
1740127252801	0.0022125244	
1740127252802	0.008773804	
1740127252803	0.009765625	
1740127252804	0.006790161	
1740127252805	0.00831604	
1740127252806	0.015258789	
1740127252807	0.03211975	
1740127252808	0.036849976	
1740127252809	0.039749146	
1740127252810	0.047531128	
1740127252811	0.04699707	
1740127252812	0.058059692	
1740127252813	0.079956055	
1740127252814	0.07133484	
1740127252815	0.04508972	
1740127252816	0.016937256	
1740127252817	-0.0011444092	
1740127252818	-0.022506714	
1740127252819	-0.04638672	
1740127252820	-0.059890747	
1740127252821	-0.06744385	
1740127252822	-0.078430176	
1740127252823	-0.08392334	
1740127252824	-0.1020813	
1740127252825	-0.119781494	
1740127252826	-0.105667114	
1740127252827	-0.08155823	
1740127252828	-0.03303528	
1740127252829	0.012207031	
1740127252830	0.043182373	
1740127252831	0.053634644	
1740127252832	0.042419434	
1740127252833	0.042495728	
1740127252834	0.03112793	
1740127252835	0.023498535	
1740127252836	0.023727417	
1740127252837	0.0022888184	
1740127252838	-0.009155273	
1740127252839	0.022354126	
1740127252840	0.021514893	
1740127252841	-0.0061798096	
1740127252842	-0.035629272	
1740127252843	-0.085372925	
1740127252844	-0.1084137	
1740127252845	-0.06965637	
1740127252846	-0.024642944	
1740127252847	6.866455E-4	
1740127252848	0.016326904	
1740127252849	0.035858154	
1740127252850	0.032958984	
1740127252851	0.009613037	
1740127252852	-0.007019043	
1740127252853	0.006713867	
1740127252854	9.918213E-4	
1740127252855	-0.0036621094	
1740127252856	0.008087158	
1740127252857	0.038146973	
1740127252858	0.044403076	
1740127252859	0.03227234	
1740127252860	0.033187866	
1740127252861	0.040130615	
1740127252862	0.06767273	
1740127252863	0.1071167	
1740127252864	0.1386261	
1740127252865	0.12901306	
1740127252866	0.094451904	
1740127252867	0.061798096	
1740127252868	0.008163452	
1740127252869	-0.024642944	
1740127252870	-0.04798889	
1740127252871	-0.07926941	
1740127252872	-0.06713867	
1740127252873	-0.05126953	
1740127252874	-0.04600525	
1740127252875	-0.03479004	
1740127252876	-0.024032593	
1740127252877	0.0021362305	
1740127252878	0.0037384033	
1740127252879	-0.01121521	
1740127252880	-0.026626587	
1740127252881	-0.06958008	
1740127252882	-0.08354187	
1740127252883	-0.070877075	
1740127252884	-0.08888245	
1740127252885	-0.100479126	
1740127252886	-0.06462097	
1740127252887	-0.024108887	
1740127252888	-0.008544922	
1740127252889	0.0020599365	
1740127252890	0.009002686	
1740127252891	0.016098022	
1740127252892	0.020751953	
1740127252893	0.025024414	
1740127252894	0.029449463	
1740127252895	0.04798889	
1740127252896	0.08201599	
1740127252897	0.1058197	
1740127252898	0.11177063	
1740127252899	0.10002136	
1740127252900	0.071640015	
1740127252901	0.021820068	
1740127252902	-0.004501343	
1740127252903	-0.0012969971	
1740127252904	-0.036697388	
1740127252905	-0.07080078	
1740127252906	-0.097351074	
1740127252907	-0.104141235	
1740127252908	-0.065460205	
1740127252909	-0.056152344	
1740127252910	-0.005340576	
1740127252911	0.02960205	
1740127252912	0.0090789795	
1740127252913	0.021514893	
1740127252914	0.034179688	
1740127252915	0.064086914	
1740127252916	0.089035034	
1740127252917	0.07736206	
1740127252918	0.046539307	
1740127252919	-0.012054443	
1740127252920	-0.048065186	
1740127252921	-0.07148743	
1740127252922	-0.09376526	
1740127252923	-0.07911682	
1740127252924	-0.037078857	
1740127252925	0.02960205	
1740127252926	0.103759766	
1740127252927	0.11482239	
1740127252928	0.08415222	
1740127252929	0.05836487	
1740127252930	0.026016235	
1740127252931	-0.010986328	
1740127252932	-0.029525757	
1740127252933	-0.030288696	
1740127252934	-0.04638672	
1740127252935	-0.084228516	
1740127252936	-0.09681702	
1740127252937	-0.06072998	
1740127252938	-0.02998352	
1740127252939	-0.039520264	
1740127252940	-0.030670166	
1740127252941	-0.010528564	
1740127252942	-0.011291504	
1740127252943	6.866455E-4	
1740127252944	0.033340454	
1740127252945	0.03730774	
1740127252946	0.018844604	
1740127252947	0.017318726	
1740127252948	0.032730103	
1740127252949	0.033340454	
1740127252950	0.020141602	
1740127252951	0.0048065186	
1740127252952	0.018234253	
1740127252953	0.04043579	
1740127252954	0.05088806	
1740127252955	0.065841675	
1740127252956	0.051116943	
1740127252957	0.011672974	
1740127252958	-0.015182495	
1740127252959	-0.046920776	
1740127252960	-0.048065186	
1740127252961	-0.04348755	
1740127252962	-0.06462097	
1740127252963	-0.040740967	
1740127252964	-0.015487671	
1740127252965	-0.024337769	
1740127252966	-0.023040771	
1740127252967	-0.03845215	
1740127252968	-0.04562378	
1740127252969	-0.018005371	
1740127252970	0.014724731	
1740127252971	0.049972534	
1740127252972	0.036468506	
1740127252973	0.037841797	
1740127252974	0.066604614	
1740127252975	0.05683899	
1740127252976	0.015716553	
1740127252977	-0.023269653	
1740127252978	-0.014877319	
1740127252979	0.008087158	
1740127252980	0.009002686	
1740127252981	0.016860962	
1740127252982	0.024414062	
1740127252983	0.023498535	
1740127252984	0.015335083	
1740127252985	0.025253296	
1740127252986	0.04837036	
1740127252987	0.027770996	
1740127252988	-7.6293945E-4	
1740127252989	-0.021362305	
1740127252990	-0.035324097	
1740127252991	-0.026550293	
1740127252992	-0.031204224	
1740127252993	-0.03791809	
1740127252994	-0.03768921	
1740127252995	-0.031051636	
1740127252996	-0.015563965	
1740127252997	-0.024642944	
1740127252998	-0.03250122	
1740127252999	-0.03501892	
1740127253000	-0.060272217	
1740127253001	-0.0541687	
1740127253002	-0.0146484375	
1740127253003	0.019760132	
1740127253004	0.059890747	
1740127253005	0.083465576	
1740127253006	0.08766174	
1740127253007	0.09307861	
1740127253008	0.08377075	
1740127253009	0.04676819	
1740127253010	0.011520386	
1740127253011	0.004272461	
1740127253012	-6.866455E-4	
1740127253013	-0.010757446	
1740127253014	-0.02708435	
1740127253015	-0.048980713	
1740127253016	-0.06904602	
1740127253017	-0.081100464	
1740127253018	-0.06828308	
1740127253019	-0.05142212	
1740127253020	-0.043029785	
1740127253021	-0.03303528	
1740127253022	-0.03303528	
1740127253023	-0.026245117	
1740127253024	-0.006790161	
1740127253025	-0.0073242188	
1740127253026	-0.009231567	
1740127253027	-0.0023651123	
1740127253028	-1.5258789E-4	
1740127253029	0.005645752	
1740127253030	0.013885498	
1740127253031	0.023803711	
1740127253032	0.026321411	
1740127253033	0.026245117	
1740127253034	0.030670166	
1740127253035	0.02998352	
1740127253036	0.034179688	
1740127253037	0.043258667	
1740127253038	0.050201416	
1740127253039	0.056762695	
1740127253040	0.049209595	
1740127253041	0.04119873	
1740127253042	0.044708252	
1740127253043	0.039901733	
1740127253044	0.029373169	
1740127253045	0.020217896	
1740127253046	0.0063323975	
1740127253047	-6.1035156E-4	
1740127253048	-0.01083374	
1740127253049	-0.030441284	
1740127253050	-0.031433105	
1740127253051	-0.026245117	
1740127253052	-0.03387451	
1740127253053	-0.03929138	
1740127253054	-0.027160645	
1740127253055	-0.007171631	
1740127253056	-0.002670288	
1740127253057	-0.023956299	
1740127253058	-0.04951477	
1740127253059	-0.050811768	
1740127253060	-0.021133423	
1740127253061	0.014801025	
1740127253062	0.014419556	
1740127253063	-0.0047302246	
1740127253064	-0.018234253	
1740127253065	-0.02204895	
1740127253066	-0.04020691	
1740127253067	-0.07293701	
1740127253068	-0.044631958	
1740127253069	0.0315094	
1740127253070	0.06965637	
1740127253071	0.046463013	
1740127253072	0.010223389	
1740127253073	0.00869751	
1740127253074	0.027160645	
1740127253075	0.017700195	
1740127253076	-0.018081665	
1740127253077	-0.035095215	
1740127253078	-0.030212402	
1740127253079	-0.019836426	
1740127253080	0.0019073486	
1740127253081	0.02243042	
1740127253082	0.016937256	
1740127253083	0.008087158	
1740127253084	0.003967285	
1740127253085	0.01777649	
1740127253086	0.033340454	
1740127253087	0.020370483	
1740127253088	0.016860962	
1740127253089	0.02571106	
1740127253090	0.031051636	
1740127253091	0.03112793	
1740127253092	0.021743774	
1740127253093	0.015411377	
1740127253094	0.009536743	
1740127253095	0.011978149	
1740127253096	0.015945435	
1740127253097	0.0019836426	
1740127253098	-0.0077819824	
1740127253099	-0.0032806396	
1740127253100	-0.0076293945	
1740127253101	-0.013122559	
1740127253102	-0.0074768066	
1740127253103	-0.01159668	
1740127253104	-0.019683838	
1740127253105	-0.02357483	
1740127253106	-0.04447937	
1740127253107	-0.0579834	
1740127253108	-0.045547485	
1740127253109	-0.016326904	
1740127253110	0.0038146973	
1740127253111	0.004119873	
1740127253112	-0.0047302246	
1740127253113	-0.0073242188	
1740127253114	0.005569458	
1740127253115	0.004348755	
1740127253116	-0.012435913	
1740127253117	-0.010528564	
1740127253118	-0.0034332275	
1740127253119	0.011672974	
1740127253120	0.034179688	
1740127253121	0.022201538	
1740127253122	0.01663208	
1740127253123	0.027618408	
1740127253124	0.0077056885	
1740127253125	-0.012130737	
1740127253126	-0.029373169	
1740127253127	-0.058059692	
1740127253128	-0.041275024	
1740127253129	-0.017547607	
1740127253130	-0.004348755	
1740127253131	0.03112793	
1740127253132	0.045318604	
1740127253133	0.03753662	
1740127253134	0.034484863	
1740127253135	0.034713745	
1740127253136	0.051498413	
1740127253137	0.05279541	
1740127253138	0.036468506	
1740127253139	0.01701355	
1740127253140	-0.0077819824	
1740127253141	-0.037078857	
1740127253142	-0.090026855	
1740127253143	-0.12062073	
1740127253144	-0.08331299	
1740127253145	-0.058670044	
1740127253146	-0.0566864	
1740127253147	-0.034332275	
1740127253148	-0.0032806396	
1740127253149	0.035476685	
1740127253150	0.056915283	
1740127253151	0.081710815	
1740127253152	0.11192322	
1740127253153	0.100250244	
1740127253154	0.089035034	
1740127253155	0.08049011	
1740127253156	0.062026978	
1740127253157	0.03768921	
1740127253158	-0.008392334	
1740127253159	-0.032196045	
1740127253160	-0.034942627	
1740127253161	-0.03173828	
1740127253162	-0.041809082	
1740127253163	-0.07026672	
1740127253164	-0.060653687	
1740127253165	-0.037765503	
1740127253166	-0.047302246	
1740127253167	-0.06645203	
1740127253168	-0.06645203	
1740127253169	-0.04310608	
1740127253170	-0.014724731	
1740127253171	0.0036621094	
1740127253172	0.033493042	
1740127253173	0.08224487	
1740127253174	0.08979797	
1740127253175	0.04776001	
1740127253176	0.020065308	
1740127253177	0.032577515	
1740127253178	0.033950806	
1740127253179	-0.017242432	
1740127253180	-0.097732544	
1740127253181	-0.15991211	
1740127253182	-0.14320374	
1740127253183	-0.08148193	
1740127253184	-0.018310547	
1740127253185	0.06523132	
1740127253186	0.10810852	
1740127253187	0.09284973	
1740127253188	0.11222839	
1740127253189	0.13778687	
1740127253190	0.086364746	
1740127253191	0.05355835	
1740127253192	0.08972168	
1740127253193	0.04776001	
1740127253194	-0.025939941	
1740127253195	-0.025939941	
1740127253196	-0.060653687	
1740127253197	-0.11550903	
1740127253198	-0.08506775	
1740127253199	-0.0146484375	
1740127253200	0.0077056885	
1740127253201	0.031204224	
1740127253202	0.07827759	
1740127253203	0.03829956	
1740127253204	-0.060195923	
1740127253205	-0.13412476	
1740127253206	-0.18417358	
1740127253207	-0.11276245	
1740127253208	-0.0038146973	
1740127253209	0.027542114	
1740127253210	0.035095215	
1740127253211	-0.05340576	
1740127253212	-0.18440247	
1740127253213	-0.20080566	
1740127253214	-0.123062134	
1740127253215	0.020751953	
1740127253216	0.12359619	
1740127253217	0.1222229	
1740127253218	0.086135864	
1740127253219	0.061187744	
1740127253220	0.08430481	
1740127253221	0.092544556	
1740127253222	0.069885254	
1740127253223	0.08155823	
1740127253224	0.13999939	
1740127253225	0.14831543	
1740127253226	0.08972168	
1740127253227	0.03540039	
1740127253228	0.025405884	
1740127253229	0.062026978	
1740127253230	0.079422	
1740127253231	0.073394775	
1740127253232	0.06607056	
1740127253233	0.059814453	
1740127253234	0.054779053	
1740127253235	0.048599243	
1740127253236	0.069885254	
1740127253237	0.056152344	
1740127253238	-0.013885498	
1740127253239	-0.08720398	
1740127253240	-0.12062073	
1740127253241	-0.10322571	
1740127253242	-0.14472961	
1740127253243	-0.24932861	
1740127253244	-0.31402588	
1740127253245	-0.3274536	
1740127253246	-0.32913208	
1740127253247	-0.3098297	
1740127253248	-0.26412964	
1740127253249	-0.21530151	
1740127253250	-0.18959045	
1740127253251	-0.13008118	
1740127253252	-0.07537842	
1740127253253	0.06378174	
1740127253254	0.23849487	
1740127253255	0.28785706	
1740127253256	0.30204773	
1740127253257	0.30715942	
1740127253258	0.27801514	
1740127253259	0.206604	
1740127253260	0.17967224	
1740127253261	0.25047302	
1740127253262	0.2685547	
1740127253263	0.21896362	
1740127253264	0.17936707	
1740127253265	0.117263794	
1740127253266	0.07354736	
1740127253267	0.07080078	
1740127253268	0.043029785	
1740127253269	0.002670288	
1740127253270	-0.023345947	
1740127253271	-0.037002563	
1740127253272	-0.039596558	
1740127253273	-0.05088806	
1740127253274	-0.06881714	
1740127253275	-0.09315491	
1740127253276	-0.12214661	
1740127253277	-0.15197754	
1740127253278	-0.19721985	
1740127253279	-0.22491455	
1740127253280	-0.2445221	
1740127253281	-0.24040222	
1740127253282	-0.21018982	
1740127253283	-0.184021	
1740127253284	-0.13298035	
1740127253285	-0.08491516	
1740127253286	-0.048217773	
1740127253287	-0.018539429	
1740127253288	0.012969971	
1740127253289	0.03692627	
1740127253290	0.05645752	
1740127253291	0.09109497	
1740127253292	0.12542725	
1740127253293	0.16105652	
1740127253294	0.16601562	
1740127253295	0.14533997	
1740127253296	0.12840271	
1740127253297	0.09925842	
1740127253298	0.0705719	
1740127253299	0.054092407	
1740127253300	0.04776001	
1740127253301	0.04447937	
1740127253302	0.03555298	
1740127253303	0.029373169	
1740127253304	0.025024414	
1740127253305	0.019683838	
1740127253306	4.5776367E-4	
1740127253307	-0.016784668	
1740127253308	-0.028381348	
1740127253309	-0.020523071	
1740127253310	0.02784729	
1740127253311	0.07316589	
1740127253312	0.06530762	
1740127253313	-0.0034332275	
1740127253314	-0.09712219	
1740127253315	-0.10574341	
1740127253316	-0.05126953	
1740127253317	-0.08560181	
1740127253318	-0.08201599	
1740127253319	-0.03303528	
1740127253320	-0.017471313	
1740127253321	0.028305054	
1740127253322	0.014419556	
1740127253323	-0.018692017	
1740127253324	-0.03479004	
1740127253325	-0.052108765	
1740127253326	-0.043792725	
1740127253327	-0.030822754	
1740127253328	-0.011367798	
1740127253329	0.008926392	
1740127253330	0.011520386	
1740127253331	-0.01838684	
1740127253332	-0.028152466	
1740127253333	-0.010223389	
1740127253334	-0.008544922	
1740127253335	-0.009918213	
1740127253336	-1.5258789E-4	
1740127253337	0.024490356	
1740127253338	0.012588501	
1740127253339	-0.010681152	
1740127253340	0.01335144	
1740127253341	0.041122437	
1740127253342	0.084228516	
1740127253343	0.11306763	
1740127253344	0.07797241	
1740127253345	0.017623901	
1740127253346	-0.0031280518	
1740127253347	0.040893555	
1740127253348	0.04508972	
1740127253349	-0.033111572	
1740127253350	-0.055160522	
1740127253351	-0.037765503	
1740127253352	-0.03326416	
1740127253353	-0.007095337	
1740127253354	0.0022125244	
