# OpenSignals Text File Format
# {"00:80:E1:26:A1:B0":{"sensor":["EMG"],"device name":"00:80:E1:26:A1:B0","column":["timestamp","EMG"],"sync interval":2,"time":"14:40:43","comments":"","keywords":"","device connection":"BLE00:80:E1:26:A1:B0","channels":[0],"date":"2025-01-17","mode":0,"digital IO":[],"firmware version":259,"device":"musclebanplux","position":0,"sampling rate":1000,"label":["EMG"],"resolution":[16],"special":[{}],"sleeve color":["UNKNOWN"]}}
# EndOfHeader
1737121244129	-0.009689331	
1737121244130	-0.015487671	
1737121244131	-0.008087158	
1737121244132	-1.5258789E-4	
1737121244133	0.006866455	
1737121244134	0.017089844	
1737121244135	0.006942749	
1737121244136	0.01083374	
1737121244137	0.011062622	
1737121244138	-0.0016021729	
1737121244139	-0.0024414062	
1737121244140	-0.006790161	
1737121244141	-0.0066375732	
1737121244142	-0.0020599365	
1737121244143	0.0073242188	
1737121244144	0.009002686	
1737121244145	0.001449585	
1737121244146	-0.0022888184	
1737121244147	0.0020599365	
1737121244148	0.013122559	
1737121244149	0.0090789795	
1737121244150	0.011978149	
1737121244151	0.0066375732	
1737121244152	-9.918213E-4	
1737121244153	-0.0073242188	
1737121244154	-0.0074005127	
1737121244155	-0.011749268	
1737121244156	-0.004348755	
1737121244157	0.002670288	
1737121244158	-0.007858276	
1737121244159	-0.004196167	
1737121244160	-0.01083374	
1737121244161	-0.010604858	
1737121244162	-7.6293945E-5	
1737121244163	-0.0074768066	
1737121244164	-0.012969971	
1737121244165	-0.0050354004	
1737121244166	0.005874634	
1737121244167	0.006866455	
1737121244168	0.012664795	
1737121244169	0.01586914	
1737121244170	0.004272461	
1737121244171	0.0048828125	
1737121244172	0.0075531006	
1737121244173	0.0012207031	
1737121244174	0.007858276	
1737121244175	-0.0010681152	
1737121244176	-0.0064849854	
1737121244177	7.6293945E-5	
1737121244178	-0.0019073486	
1737121244179	1.5258789E-4	
1737121244180	-0.0038909912	
1737121244181	-0.0050354004	
1737121244182	-0.012741089	
1737121244183	-0.0059509277	
1737121244184	-0.0025939941	
1737121244185	0.009536743	
1737121244186	0.014877319	
1737121244187	0.0048828125	
1737121244188	0.015182495	
1737121244189	0.004119873	
1737121244190	-1.5258789E-4	
1737121244191	0.0051116943	
1737121244192	-0.0025939941	
1737121244193	0.005645752	
1737121244194	-0.0020599365	
1737121244195	-0.0074005127	
1737121244196	1.5258789E-4	
1737121244197	-0.0049591064	
1737121244198	-0.007858276	
1737121244199	-0.0077056885	
1737121244200	-0.00869751	
1737121244201	-5.340576E-4	
1737121244202	0.010604858	
1737121244203	2.2888184E-4	
1737121244204	-0.0066375732	
1737121244205	-0.0017547607	
1737121244206	-3.8146973E-4	
1737121244207	0.004196167	
1737121244208	-5.340576E-4	
1737121244209	-0.004119873	
1737121244210	-7.6293945E-5	
1737121244211	0.0029754639	
1737121244212	5.340576E-4	
1737121244213	7.6293945E-4	
1737121244214	0.0019836426	
1737121244215	0.006866455	
1737121244216	0.0037384033	
1737121244217	0.0012207031	
1737121244218	0.004348755	
1737121244219	-0.0019836426	
1737121244220	-9.1552734E-4	
1737121244221	-0.0018310547	
1737121244222	-0.0024414062	
1737121244223	-0.0022125244	
1737121244224	-0.001449585	
1737121244225	-0.0012969971	
1737121244226	6.866455E-4	
1737121244227	0.002822876	
1737121244228	-0.0017547607	
1737121244229	0.0051879883	
1737121244230	0.004425049	
1737121244231	0.0015258789	
1737121244232	0.01083374	
1737121244233	0.0051116943	
1737121244234	0.0051116943	
1737121244235	0.0045776367	
1737121244236	-0.002746582	
1737121244237	-0.009155273	
1737121244238	-0.004196167	
1737121244239	-0.0015258789	
1737121244240	-0.004043579	
1737121244241	-0.0060272217	
1737121244242	-0.008087158	
1737121244243	-0.0023651123	
1737121244244	-0.0038146973	
1737121244245	0.004043579	
1737121244246	0.0090789795	
1737121244247	0.0023651123	
1737121244248	0.0030517578	
1737121244249	0.0011444092	
1737121244250	0.001373291	
1737121244251	0.0019836426	
1737121244252	0.0048828125	
1737121244253	-0.0045776367	
1737121244254	-0.0050354004	
1737121244255	0.0034332275	
1737121244256	0.0015258789	
1737121244257	0.001449585	
1737121244258	0.0011444092	
1737121244259	-0.0012207031	
1737121244260	0.0032806396	
1737121244261	-4.5776367E-4	
1737121244262	-0.0029754639	
1737121244263	0.005645752	
1737121244264	-0.0022125244	
1737121244265	-0.004272461	
1737121244266	-6.866455E-4	
1737121244267	-0.0018310547	
1737121244268	0.005264282	
1737121244269	0.0038909912	
1737121244270	-0.0016021729	
1737121244271	0.0045776367	
1737121244272	-0.0022888184	
1737121244273	0.0011444092	
1737121244274	0.0024414062	
1737121244275	-0.0022888184	
1737121244276	0.0020599365	
1737121244277	0.0066375732	
1737121244278	0.0025939941	
1737121244279	-0.008239746	
1737121244280	-0.012054443	
1737121244281	-0.0077819824	
1737121244282	-0.009613037	
1737121244283	-0.007171631	
1737121244284	0.008544922	
1737121244285	0.010757446	
1737121244286	-0.0017547607	
1737121244287	0.0061035156	
1737121244288	0.0074005127	
1737121244289	6.1035156E-4	
1737121244290	-0.0023651123	
1737121244291	-0.001373291	
1737121244292	0.0020599365	
1737121244293	0.0031280518	
1737121244294	0.014038086	
1737121244295	0.011291504	
1737121244296	0.008544922	
1737121244297	0.002746582	
1737121244298	-0.00289917	
1737121244299	6.866455E-4	
1737121244300	-0.0015258789	
1737121244301	-0.005874634	
1737121244302	-0.012588501	
1737121244303	-0.005645752	
1737121244304	0.001449585	
1737121244305	-0.0017547607	
1737121244306	0.00869751	
1737121244307	0.0021362305	
1737121244308	-0.017623901	
1737121244309	-0.006713867	
1737121244310	-0.0010681152	
1737121244311	-0.0022125244	
1737121244312	0.0010681152	
1737121244313	6.866455E-4	
1737121244314	0.009002686	
1737121244315	0.006942749	
1737121244316	0.0034332275	
1737121244317	0.0019073486	
1737121244318	-0.0047302246	
1737121244319	4.5776367E-4	
1737121244320	5.340576E-4	
1737121244321	-0.005874634	
1737121244322	-0.004501343	
1737121244323	-0.0018310547	
1737121244324	-0.006866455	
1737121244325	0.0038146973	
1737121244326	3.8146973E-4	
1737121244327	-0.0017547607	
1737121244328	0.010223389	
1737121244329	0.007858276	
1737121244330	0.010528564	
1737121244331	0.009994507	
1737121244332	0.0037384033	
1737121244333	0.005569458	
1737121244334	0.0073242188	
1737121244335	0.002822876	
1737121244336	-0.002746582	
1737121244337	0.0062561035	
1737121244338	-0.0065612793	
1737121244339	-0.0118255615	
1737121244340	0.0011444092	
1737121244341	-0.0011444092	
1737121244342	-0.0036621094	
1737121244343	-0.00869751	
1737121244344	-0.013427734	
1737121244345	-0.0035095215	
1737121244346	0.0015258789	
1737121244347	0.0063323975	
1737121244348	0.0104522705	
1737121244349	-0.0032806396	
1737121244350	-0.0017547607	
1737121244351	-0.0035095215	
1737121244352	0.0048828125	
1737121244353	0.0036621094	
1737121244354	-0.0074005127	
1737121244355	-0.0025177002	
1737121244356	-0.017852783	
1737121244357	-0.0063323975	
1737121244358	0.0051116943	
1737121244359	0.0061035156	
1737121244360	0.024642944	
1737121244361	0.016479492	
1737121244362	-0.00289917	
1737121244363	-0.00793457	
1737121244364	-0.0034332275	
1737121244365	-0.0018310547	
1737121244366	-0.0022125244	
1737121244367	-0.0019836426	
1737121244368	0.0038909912	
1737121244369	0.005645752	
1737121244370	-0.0023651123	
1737121244371	0.0031280518	
1737121244372	0.0034332275	
1737121244373	-0.003967285	
1737121244374	3.0517578E-4	
1737121244375	0.004196167	
1737121244376	9.1552734E-4	
1737121244377	-0.002822876	
1737121244378	-0.0032806396	
1737121244379	0.007247925	
1737121244380	-7.6293945E-4	
1737121244381	0.001373291	
1737121244382	0.0034332275	
1737121244383	-0.007858276	
1737121244384	6.866455E-4	
1737121244385	0.0	
1737121244386	0.0031280518	
1737121244387	0.008544922	
1737121244388	0.010147095	
1737121244389	0.0015258789	
1737121244390	-0.010910034	
1737121244391	-0.009155273	
1737121244392	-0.00579834	
1737121244393	-0.005340576	
1737121244394	-0.0016021729	
1737121244395	-0.0031280518	
1737121244396	0.0015258789	
1737121244397	0.001373291	
1737121244398	0.0021362305	
1737121244399	9.1552734E-4	
1737121244400	3.0517578E-4	
1737121244401	0.0025177002	
1737121244402	-0.002822876	
1737121244403	0.009918213	
1737121244404	0.009765625	
1737121244405	-9.1552734E-4	
1737121244406	0.009384155	
1737121244407	0.009231567	
1737121244408	0.00289917	
1737121244409	-0.0036621094	
1737121244410	-0.005340576	
1737121244411	0.010070801	
1737121244412	-0.0036621094	
1737121244413	-0.011291504	
1737121244414	0.0049591064	
1737121244415	-0.0034332275	
1737121244416	0.009536743	
1737121244417	0.0035858154	
1737121244418	-0.008773804	
1737121244419	0.0061798096	
1737121244420	-6.866455E-4	
1737121244421	-0.0020599365	
1737121244422	-0.006942749	
1737121244423	-0.007019043	
1737121244424	-1.5258789E-4	
1737121244425	-0.0061035156	
1737121244426	-0.007095337	
1737121244427	-0.0051879883	
1737121244428	-0.0038909912	
1737121244429	5.340576E-4	
1737121244430	-0.002822876	
1737121244431	0.0023651123	
1737121244432	0.002822876	
1737121244433	0.0032806396	
1737121244434	0.0034332275	
1737121244435	0.0016784668	
1737121244436	0.00579834	
1737121244437	0.0033569336	
1737121244438	0.0018310547	
1737121244439	-0.001373291	
1737121244440	7.6293945E-4	
1737121244441	-0.0016021729	
1737121244442	-0.0033569336	
1737121244443	0.008850098	
1737121244444	0.0118255615	
1737121244445	0.008163452	
1737121244446	0.0051116943	
1737121244447	0.0038146973	
1737121244448	7.6293945E-4	
1737121244449	5.340576E-4	
1737121244450	0.0035858154	
1737121244451	0.0025177002	
1737121244452	0.001373291	
1737121244453	0.0019836426	
1737121244454	-0.0034332275	
1737121244455	-0.0024414062	
1737121244456	-0.0064086914	
1737121244457	-0.0077819824	
1737121244458	-0.0051116943	
1737121244459	-0.0025177002	
1737121244460	0.0036621094	
1737121244461	-0.009002686	
1737121244462	-0.0047302246	
1737121244463	-0.003967285	
1737121244464	-0.00289917	
1737121244465	1.5258789E-4	
1737121244466	-0.0074005127	
1737121244467	-0.0015258789	
1737121244468	-0.010299683	
1737121244469	-0.00289917	
1737121244470	0.005874634	
1737121244471	0.011138916	
1737121244472	0.026626587	
1737121244473	0.032196045	
1737121244474	0.024719238	
1737121244475	-0.0020599365	
1737121244476	-0.011749268	
1737121244477	-8.392334E-4	
1737121244478	-0.0062561035	
1737121244479	-0.010147095	
1737121244480	-0.011749268	
1737121244481	-0.010604858	
1737121244482	-0.006790161	
1737121244483	-0.012512207	
1737121244484	-0.0050354004	
1737121244485	-9.1552734E-4	
1737121244486	-0.00579834	
1737121244487	-0.0025177002	
1737121244488	0.0030517578	
1737121244489	0.0064849854	
1737121244490	0.010147095	
1737121244491	0.00289917	
1737121244492	0.0045776367	
1737121244493	0.016174316	
1737121244494	0.010299683	
1737121244495	0.0062561035	
1737121244496	0.0063323975	
1737121244497	0.0021362305	
1737121244498	0.0023651123	
1737121244499	0.0025939941	
1737121244500	-0.007171631	
1737121244501	-0.013046265	
1737121244502	-0.009689331	
1737121244503	5.340576E-4	
1737121244504	-7.6293945E-4	
1737121244505	-0.0018310547	
1737121244506	-0.004119873	
1737121244507	-0.00289917	
1737121244508	5.340576E-4	
1737121244509	0.0019073486	
1737121244510	2.2888184E-4	
1737121244511	-0.0021362305	
1737121244512	0.0020599365	
1737121244513	0.005722046	
1737121244514	0.0063323975	
1737121244515	0.0020599365	
1737121244516	0.001373291	
1737121244517	0.0061798096	
1737121244518	0.0012207031	
1737121244519	-0.0019836426	
1737121244520	-0.005340576	
1737121244521	-0.005264282	
1737121244522	-0.001373291	
1737121244523	-0.0046539307	
1737121244524	-0.0020599365	
1737121244525	0.0032806396	
1737121244526	0.0022125244	
1737121244527	0.0017547607	
1737121244528	0.004501343	
1737121244529	0.007019043	
1737121244530	0.00579834	
1737121244531	0.0061035156	
1737121244532	0.0030517578	
1737121244533	-5.340576E-4	
1737121244534	-0.0022125244	
1737121244535	-3.0517578E-4	
1737121244536	0.003967285	
1737121244537	3.8146973E-4	
1737121244538	-0.006713867	
1737121244539	-0.002746582	
1737121244540	-0.004272461	
1737121244541	-0.0050354004	
1737121244542	-0.0051116943	
1737121244543	-0.00579834	
1737121244544	-0.0030517578	
1737121244545	-0.002746582	
1737121244546	4.5776367E-4	
1737121244547	0.005493164	
1737121244548	-0.0022125244	
1737121244549	-0.004501343	
1737121244550	0.0011444092	
1737121244551	0.0031280518	
1737121244552	0.008087158	
1737121244553	0.014572144	
1737121244554	0.006713867	
1737121244555	0.006713867	
1737121244556	0.011978149	
1737121244557	0.0064086914	
1737121244558	0.009841919	
1737121244559	0.00579834	
1737121244560	-0.0090789795	
1737121244561	-0.005645752	
1737121244562	0.0012207031	
1737121244563	-0.005874634	
1737121244564	-0.006942749	
1737121244565	-0.010147095	
1737121244566	-0.0075531006	
1737121244567	-0.0047302246	
1737121244568	-9.1552734E-4	
1737121244569	-0.009460449	
1737121244570	-0.0075531006	
1737121244571	-0.0016021729	
1737121244572	0.0012969971	
1737121244573	0.008468628	
1737121244574	-0.003967285	
1737121244575	7.6293945E-4	
1737121244576	0.0076293945	
1737121244577	3.0517578E-4	
1737121244578	0.0031280518	
1737121244579	0.0	
1737121244580	0.0045776367	
1737121244581	0.006713867	
1737121244582	3.0517578E-4	
1737121244583	-9.918213E-4	
1737121244584	0.001373291	
1737121244585	0.003967285	
1737121244586	-0.0011444092	
1737121244587	0.0063323975	
1737121244588	0.005645752	
1737121244589	-0.009765625	
1737121244590	-0.0011444092	
1737121244591	0.009307861	
1737121244592	0.0045776367	
1737121244593	-6.1035156E-4	
1737121244594	5.340576E-4	
1737121244595	1.5258789E-4	
1737121244596	3.0517578E-4	
1737121244597	0.0066375732	
1737121244598	0.009002686	
1737121244599	0.0015258789	
1737121244600	0.00289917	
1737121244601	0.0021362305	
1737121244602	-0.006713867	
1737121244603	-0.014953613	
1737121244604	-0.022888184	
1737121244605	-0.012130737	
1737121244606	-0.007019043	
1737121244607	0.012512207	
1737121244608	0.02128601	
1737121244609	0.009689331	
1737121244610	0.0032043457	
1737121244611	-2.2888184E-4	
1737121244612	0.0025177002	
1737121244613	0.0019073486	
1737121244614	-0.002670288	
1737121244615	0.0029754639	
1737121244616	9.918213E-4	
1737121244617	7.6293945E-4	
1737121244618	-7.6293945E-5	
1737121244619	-0.0025939941	
1737121244620	-0.005874634	
1737121244621	-0.006790161	
1737121244622	0.0023651123	
1737121244623	-1.5258789E-4	
1737121244624	-0.0065612793	
1737121244625	-0.0059509277	
1737121244626	-0.011062622	
1737121244627	0.0019073486	
1737121244628	0.009231567	
1737121244629	0.0037384033	
1737121244630	0.006790161	
1737121244631	0.002822876	
1737121244632	-6.1035156E-4	
1737121244633	0.0074768066	
1737121244634	0.008239746	
1737121244635	0.005645752	
1737121244636	0.0061035156	
1737121244637	-0.0061798096	
1737121244638	-0.0032043457	
1737121244639	-0.0035858154	
1737121244640	-0.0022888184	
1737121244641	-2.2888184E-4	
1737121244642	-0.006790161	
1737121244643	0.0036621094	
1737121244644	-4.5776367E-4	
1737121244645	-0.0015258789	
1737121244646	0.0032043457	
1737121244647	0.0015258789	
1737121244648	-0.0031280518	
1737121244649	6.1035156E-4	
1737121244650	0.006713867	
1737121244651	-5.340576E-4	
1737121244652	0.0051879883	
1737121244653	0.0064086914	
1737121244654	0.00579834	
1737121244655	-0.002670288	
1737121244656	-0.01121521	
1737121244657	-6.1035156E-4	
1737121244658	0.008087158	
1737121244659	6.1035156E-4	
1737121244660	2.2888184E-4	
1737121244661	7.6293945E-4	
1737121244662	-0.00541687	
1737121244663	-7.6293945E-5	
1737121244664	0.0022888184	
1737121244665	3.8146973E-4	
1737121244666	0.0018310547	
1737121244667	0.0016021729	
1737121244668	0.0	
1737121244669	7.6293945E-5	
1737121244670	0.008087158	
1737121244671	-0.004501343	
1737121244672	-0.001373291	
1737121244673	0.0051116943	
1737121244674	-0.0025177002	
1737121244675	0.003967285	
1737121244676	0.0018310547	
1737121244677	0.002670288	
1737121244678	0.004272461	
1737121244679	-0.004272461	
1737121244680	-4.5776367E-4	
1737121244681	-0.001373291	
1737121244682	-0.0047302246	
1737121244683	-0.008773804	
1737121244684	-0.0037384033	
1737121244685	-0.007019043	
1737121244686	-0.005493164	
1737121244687	2.2888184E-4	
1737121244688	-0.0073242188	
1737121244689	-0.004272461	
1737121244690	-7.6293945E-4	
1737121244691	-0.001373291	
1737121244692	0.015106201	
1737121244693	0.01373291	
1737121244694	0.007858276	
1737121244695	0.01739502	
1737121244696	0.010299683	
1737121244697	0.005493164	
1737121244698	-0.0038909912	
1737121244699	1.5258789E-4	
1737121244700	0.007095337	
1737121244701	0.0011444092	
1737121244702	-0.007019043	
1737121244703	-0.0032806396	
1737121244704	0.0022125244	
1737121244705	-0.011672974	
1737121244706	-0.00869751	
1737121244707	-0.0036621094	
1737121244708	-0.009613037	
1737121244709	0.0018310547	
1737121244710	0.010910034	
1737121244711	0.0064849854	
1737121244712	0.011520386	
1737121244713	0.0016784668	
1737121244714	-0.0077056885	
1737121244715	-0.008544922	
1737121244716	-0.019454956	
1737121244717	-0.01121521	
1737121244718	-0.0029754639	
1737121244719	0.01411438	
1737121244720	0.02243042	
1737121244721	0.006713867	
1737121244722	0.004043579	
1737121244723	-0.0063323975	
1737121244724	-0.0032043457	
1737121244725	2.2888184E-4	
1737121244726	-0.006790161	
1737121244727	-0.0046539307	
1737121244728	-0.0073242188	
1737121244729	0.0049591064	
1737121244730	0.011749268	
1737121244731	0.0032806396	
1737121244732	0.004425049	
1737121244733	0.0010681152	
1737121244734	0.007247925	
1737121244735	0.011138916	
1737121244736	0.002746582	
1737121244737	-0.0035858154	
1737121244738	-0.009994507	
1737121244739	-0.00793457	
1737121244740	0.0045776367	
1737121244741	0.008392334	
1737121244742	-0.008239746	
1737121244743	-0.009918213	
1737121244744	-0.00289917	
1737121244745	9.1552734E-4	
1737121244746	0.009002686	
1737121244747	0.0025177002	
1737121244748	0.00289917	
1737121244749	0.008087158	
1737121244750	0.0037384033	
1737121244751	-0.0019073486	
1737121244752	-0.0021362305	
1737121244753	0.0075531006	
1737121244754	-5.340576E-4	
1737121244755	0.001373291	
1737121244756	-0.0012207031	
1737121244757	5.340576E-4	
1737121244758	-0.0047302246	
1737121244759	-0.0077056885	
1737121244760	-0.0019836426	
1737121244761	-0.0064086914	
1737121244762	2.2888184E-4	
1737121244763	-0.007247925	
1737121244764	-0.0025939941	
1737121244765	0.0074005127	
1737121244766	6.1035156E-4	
1737121244767	0.0011444092	
1737121244768	0.001373291	
1737121244769	0.010757446	
1737121244770	8.392334E-4	
1737121244771	1.5258789E-4	
1737121244772	0.0075531006	
1737121244773	0.0037384033	
1737121244774	-2.2888184E-4	
1737121244775	0.0020599365	
1737121244776	0.007247925	
1737121244777	0.0047302246	
1737121244778	-0.004501343	
1737121244779	0.004425049	
1737121244780	-0.0015258789	
1737121244781	-0.005264282	
1737121244782	-0.005569458	
1737121244783	-0.008621216	
1737121244784	-0.0048828125	
1737121244785	-0.001449585	
1737121244786	0.0025177002	
1737121244787	-7.6293945E-5	
1737121244788	-0.0036621094	
1737121244789	0.004196167	
1737121244790	0.010299683	
1737121244791	0.0031280518	
1737121244792	0.0035095215	
1737121244793	0.008544922	
1737121244794	0.0012207031	
1737121244795	-5.340576E-4	
1737121244796	-0.01739502	
1737121244797	-0.008544922	
1737121244798	0.0032806396	
1737121244799	-1.5258789E-4	
1737121244800	0.00541687	
1737121244801	-0.00869751	
1737121244802	-0.0036621094	
1737121244803	-9.1552734E-4	
1737121244804	-0.0024414062	
1737121244805	6.1035156E-4	
1737121244806	0.0075531006	
1737121244807	0.020980835	
1737121244808	0.023117065	
1737121244809	0.017852783	
1737121244810	-0.0012207031	
1737121244811	-0.015563965	
1737121244812	-0.0065612793	
1737121244813	0.0024414062	
1737121244814	0.0	
1737121244815	0.004272461	
1737121244816	-9.918213E-4	
1737121244817	-0.0090789795	
1737121244818	-0.015716553	
1737121244819	-0.014724731	
1737121244820	-0.01777649	
1737121244821	-0.008239746	
1737121244822	0.004272461	
1737121244823	0.010070801	
1737121244824	0.016784668	
1737121244825	0.011444092	
1737121244826	-8.392334E-4	
1737121244827	-6.866455E-4	
1737121244828	0.006942749	
1737121244829	0.010223389	
1737121244830	0.01083374	
1737121244831	0.0025177002	
1737121244832	0.0020599365	
1737121244833	-0.0032043457	
1737121244834	-0.005340576	
1737121244835	0.0048828125	
1737121244836	-0.0020599365	
1737121244837	-7.6293945E-4	
1737121244838	0.004196167	
1737121244839	-0.0025177002	
1737121244840	-0.004425049	
1737121244841	-0.012893677	
1737121244842	-0.007247925	
1737121244843	-0.0038146973	
1737121244844	-0.0021362305	
1737121244845	-0.0049591064	
1737121244846	-0.001373291	
1737121244847	-9.918213E-4	
1737121244848	-0.0025939941	
1737121244849	0.0019836426	
1737121244850	0.008392334	
1737121244851	0.0075531006	
1737121244852	0.007095337	
1737121244853	-6.1035156E-4	
1737121244854	-0.002670288	
1737121244855	0.012130737	
1737121244856	0.009231567	
1737121244857	0.0018310547	
1737121244858	0.0075531006	
1737121244859	0.005645752	
1737121244860	0.0018310547	
1737121244861	-5.340576E-4	
1737121244862	-0.0074768066	
1737121244863	-0.0061035156	
1737121244864	5.340576E-4	
1737121244865	-0.005722046	
1737121244866	1.5258789E-4	
1737121244867	0.0038909912	
1737121244868	1.5258789E-4	
1737121244869	-0.002670288	
1737121244870	-0.001449585	
1737121244871	0.011138916	
1737121244872	-8.392334E-4	
1737121244873	-0.008773804	
1737121244874	0.004272461	
1737121244875	-0.004425049	
1737121244876	-0.004348755	
1737121244877	0.005569458	
1737121244878	-0.0019836426	
1737121244879	0.006866455	
1737121244880	-0.003967285	
1737121244881	-0.001373291	
1737121244882	0.0010681152	
1737121244883	-0.010223389	
1737121244884	0.0030517578	
1737121244885	0.002822876	
1737121244886	0.0038146973	
1737121244887	0.0025939941	
1737121244888	-0.0064849854	
1737121244889	-0.0032806396	
1737121244890	0.00289917	
1737121244891	0.0031280518	
1737121244892	-0.005722046	
1737121244893	0.004119873	
1737121244894	0.002822876	
1737121244895	0.0066375732	
1737121244896	0.01335144	
1737121244897	9.918213E-4	
1737121244898	-0.0010681152	
1737121244899	0.0022888184	
1737121244900	-7.6293945E-5	
1737121244901	-7.6293945E-4	
1737121244902	-0.006713867	
1737121244903	0.0048065186	
1737121244904	-6.1035156E-4	
1737121244905	-0.0024414062	
1737121244906	3.8146973E-4	
1737121244907	-0.014190674	
1737121244908	-9.1552734E-4	
1737121244909	-0.005722046	
1737121244910	-0.009384155	
1737121244911	0.014572144	
1737121244912	0.0019073486	
1737121244913	-0.0024414062	
1737121244914	-0.0022888184	
1737121244915	-0.003967285	
1737121244916	0.0064849854	
1737121244917	0.012359619	
1737121244918	0.014877319	
1737121244919	0.0025177002	
1737121244920	0.00579834	
1737121244921	0.008544922	
1737121244922	0.007095337	
1737121244923	0.002670288	
1737121244924	-7.6293945E-4	
1737121244925	-0.005340576	
1737121244926	-0.016860962	
1737121244927	-0.0061035156	
1737121244928	-0.0025939941	
1737121244929	-0.014266968	
1737121244930	-0.0049591064	
1737121244931	-0.0048065186	
1737121244932	0.007858276	
1737121244933	0.025787354	
1737121244934	0.019073486	
1737121244935	0.0077056885	
1737121244936	-0.0045776367	
1737121244937	-0.0035095215	
1737121244938	-0.008544922	
1737121244939	-0.00793457	
1737121244940	9.918213E-4	
1737121244941	-0.0035858154	
1737121244942	-0.00831604	
1737121244943	-0.008926392	
1737121244944	-0.001449585	
1737121244945	-7.6293945E-4	
1737121244946	-0.0038146973	
1737121244947	5.340576E-4	
1737121244948	-0.0012969971	
1737121244949	0.0033569336	
1737121244950	0.008087158	
1737121244951	0.0019836426	
1737121244952	0.002822876	
1737121244953	0.005645752	
1737121244954	0.0	
1737121244955	0.0021362305	
1737121244956	0.002746582	
1737121244957	0.005722046	
1737121244958	0.006713867	
1737121244959	-0.003967285	
1737121244960	-0.005340576	
1737121244961	-0.0017547607	
1737121244962	0.01159668	
1737121244963	0.0022125244	
1737121244964	-0.001373291	
1737121244965	0.0029754639	
1737121244966	-0.0038909912	
1737121244967	0.0011444092	
1737121244968	-0.010375977	
1737121244969	-0.011672974	
1737121244970	-0.0050354004	
1737121244971	0.0031280518	
1737121244972	0.011672974	
1737121244973	0.004348755	
1737121244974	0.0075531006	
1737121244975	0.0065612793	
1737121244976	-0.0061798096	
1737121244977	-0.0029754639	
1737121244978	0.0016021729	
1737121244979	0.009994507	
1737121244980	0.002822876	
1737121244981	0.0029754639	
1737121244982	-1.5258789E-4	
1737121244983	3.8146973E-4	
1737121244984	0.004272461	
1737121244985	-0.00541687	
1737121244986	-0.0048065186	
1737121244987	-0.013122559	
1737121244988	-0.013961792	
1737121244989	0.0031280518	
1737121244990	0.001449585	
1737121244991	0.009841919	
1737121244992	0.004501343	
1737121244993	-9.1552734E-4	
1737121244994	0.0048065186	
1737121244995	0.004043579	
1737121244996	0.005340576	
1737121244997	-0.0045776367	
1737121244998	0.00579834	
1737121244999	7.6293945E-4	
1737121245000	-0.010986328	
1737121245001	0.0022125244	
1737121245002	-0.0016784668	
1737121245003	-0.0015258789	
1737121245004	-5.340576E-4	
1737121245005	-7.6293945E-4	
1737121245006	5.340576E-4	
1737121245007	0.0036621094	
1737121245008	0.001373291	
1737121245009	-6.866455E-4	
1737121245010	-0.005645752	
1737121245011	-0.0030517578	
1737121245012	0.010681152	
1737121245013	0.009994507	
1737121245014	0.008163452	
1737121245015	-0.0021362305	
1737121245016	-0.008163452	
1737121245017	0.002822876	
1737121245018	0.0036621094	
1737121245019	-7.6293945E-4	
1737121245020	-0.0018310547	
1737121245021	-0.004348755	
1737121245022	0.0024414062	
1737121245023	-0.009002686	
1737121245024	-0.016479492	
1737121245025	-0.008468628	
1737121245026	-0.0016784668	
1737121245027	0.014419556	
1737121245028	0.01701355	
1737121245029	0.013504028	
1737121245030	0.002746582	
1737121245031	0.005264282	
1737121245032	0.0077819824	
1737121245033	0.0061035156	
1737121245034	0.005874634	
1737121245035	0.0015258789	
1737121245036	0.0048065186	
1737121245037	-0.0037384033	
1737121245038	-0.009994507	
1737121245039	-0.01335144	
1737121245040	-0.02281189	
1737121245041	-0.025253296	
1737121245042	-0.013504028	
1737121245043	-0.0033569336	
1737121245044	0.012207031	
1737121245045	0.024414062	
1737121245046	0.014190674	
1737121245047	0.0065612793	
1737121245048	0.0064086914	
1737121245049	0.005722046	
1737121245050	-0.0037384033	
1737121245051	-0.0061035156	
1737121245052	-0.0016021729	
1737121245053	-0.0066375732	
1737121245054	-0.0029754639	
1737121245055	0.0077819824	
1737121245056	0.006942749	
1737121245057	0.011520386	
1737121245058	0.0046539307	
1737121245059	-0.00579834	
1737121245060	-4.5776367E-4	
1737121245061	-0.0060272217	
1737121245062	-0.009536743	
1737121245063	0.0023651123	
1737121245064	0.0033569336	
1737121245065	0.0019836426	
1737121245066	0.008850098	
1737121245067	0.0019836426	
1737121245068	-0.004196167	
1737121245069	-0.0022888184	
1737121245070	-0.0030517578	
1737121245071	-0.0016021729	
1737121245072	-0.0016021729	
1737121245073	0.00289917	
1737121245074	0.0015258789	
1737121245075	-0.004272461	
1737121245076	-0.0036621094	
1737121245077	0.011138916	
1737121245078	0.007858276	
1737121245079	-0.0019073486	
1737121245080	8.392334E-4	
1737121245081	-0.005264282	
1737121245082	-0.0031280518	
1737121245083	-0.0022125244	
1737121245084	0.005340576	
1737121245085	-3.0517578E-4	
1737121245086	-0.0032043457	
1737121245087	4.5776367E-4	
1737121245088	-0.0051116943	
1737121245089	9.918213E-4	
1737121245090	0.0025177002	
1737121245091	-0.0034332275	
1737121245092	0.004272461	
1737121245093	0.0036621094	
1737121245094	0.0035095215	
1737121245095	0.008392334	
1737121245096	0.0073242188	
1737121245097	0.001373291	
1737121245098	1.5258789E-4	
1737121245099	9.918213E-4	
1737121245100	-0.001373291	
1737121245101	-0.010223389	
1737121245102	-0.013122559	
1737121245103	-0.0034332275	
1737121245104	-0.0018310547	
1737121245105	-0.0035095215	
1737121245106	0.002822876	
1737121245107	0.0076293945	
1737121245108	0.00541687	
1737121245109	0.00579834	
1737121245110	0.0035095215	
1737121245111	-0.0020599365	
1737121245112	3.8146973E-4	
1737121245113	0.003967285	
1737121245114	-4.5776367E-4	
1737121245115	-3.8146973E-4	
1737121245116	0.0045776367	
1737121245117	-0.0020599365	
1737121245118	-1.5258789E-4	
1737121245119	-0.0021362305	
1737121245120	-0.0090789795	
1737121245121	7.6293945E-5	
1737121245122	-0.0046539307	
1737121245123	0.0015258789	
1737121245124	0.008850098	
1737121245125	0.0022888184	
1737121245126	-0.0022888184	
1737121245127	-6.1035156E-4	
1737121245128	0.0019073486	
1737121245129	0.0022125244	
1737121245130	0.0038909912	
1737121245131	0.0050354004	
1737121245132	0.005493164	
1737121245133	0.005874634	
1737121245134	0.005264282	
1737121245135	-0.0022125244	
1737121245136	0.001449585	
1737121245137	0.0025939941	
1737121245138	-0.011520386	
1737121245139	-0.0104522705	
1737121245140	-0.0032043457	
1737121245141	-3.0517578E-4	
1737121245142	0.005569458	
1737121245143	-0.0049591064	
1737121245144	4.5776367E-4	
1737121245145	-0.0035095215	
1737121245146	-0.0035858154	
1737121245147	0.0118255615	
1737121245148	0.0047302246	
1737121245149	0.009841919	
1737121245150	0.0063323975	
1737121245151	0.0046539307	
1737121245152	0.004425049	
1737121245153	-0.0020599365	
1737121245154	-3.0517578E-4	
1737121245155	-0.011444092	
1737121245156	-0.009918213	
1737121245157	-0.006866455	
1737121245158	-0.0059509277	
1737121245159	-0.004272461	
1737121245160	-0.00579834	
1737121245161	-0.0010681152	
1737121245162	0.007019043	
1737121245163	0.010681152	
1737121245164	-7.6293945E-5	
1737121245165	-0.0034332275	
1737121245166	-9.918213E-4	
1737121245167	-0.0019836426	
1737121245168	0.0046539307	
1737121245169	0.007247925	
1737121245170	0.008239746	
1737121245171	0.008468628	
1737121245172	0.0015258789	
1737121245173	0.005874634	
1737121245174	-0.0025177002	
1737121245175	-0.0118255615	
1737121245176	-7.6293945E-4	
1737121245177	-0.0046539307	
1737121245178	-0.0118255615	
1737121245179	-0.0063323975	
1737121245180	-4.5776367E-4	
1737121245181	0.015945435	
1737121245182	0.019836426	
1737121245183	0.019302368	
1737121245184	0.013809204	
1737121245185	-0.0012207031	
1737121245186	-0.005569458	
1737121245187	-0.002670288	
1737121245188	-0.004348755	
1737121245189	-0.01121521	
1737121245190	-0.012512207	
1737121245191	-0.0061798096	
1737121245192	0.004043579	
1737121245193	-0.0010681152	
1737121245194	-0.00579834	
1737121245195	-0.0022888184	
1737121245196	-0.0019073486	
1737121245197	0.004272461	
1737121245198	0.0017547607	
1737121245199	0.0029754639	
1737121245200	0.0074005127	
1737121245201	0.0022125244	
1737121245202	-7.6293945E-4	
1737121245203	-0.0012207031	
1737121245204	-0.008239746	
1737121245205	-0.0064849854	
1737121245206	0.003967285	
1737121245207	0.004348755	
1737121245208	0.00579834	
1737121245209	-7.6293945E-4	
1737121245210	0.0045776367	
1737121245211	0.0035095215	
1737121245212	0.0	
1737121245213	0.0037384033	
1737121245214	-0.0011444092	
1737121245215	-9.1552734E-4	
1737121245216	-0.002822876	
1737121245217	-0.002670288	
1737121245218	5.340576E-4	
1737121245219	0.00579834	
1737121245220	0.0019836426	
1737121245221	-0.0031280518	
1737121245222	7.6293945E-4	
1737121245223	0.0021362305	
1737121245224	9.918213E-4	
1737121245225	-0.003967285	
1737121245226	-0.0051879883	
1737121245227	-0.008392334	
1737121245228	0.0016784668	
1737121245229	0.0048065186	
1737121245230	0.011138916	
1737121245231	0.016708374	
1737121245232	0.0037384033	
1737121245233	1.5258789E-4	
1737121245234	6.866455E-4	
1737121245235	-0.004272461	
1737121245236	-0.0037384033	
1737121245237	0.00289917	
1737121245238	-0.009307861	
1737121245239	-0.008926392	
1737121245240	0.0061798096	
1737121245241	-6.1035156E-4	
1737121245242	0.0045776367	
1737121245243	-0.0033569336	
1737121245244	-0.013809204	
1737121245245	0.0020599365	
1737121245246	-6.866455E-4	
1737121245247	3.8146973E-4	
1737121245248	0.009765625	
1737121245249	-0.0019836426	
1737121245250	0.0021362305	
1737121245251	-0.0061798096	
1737121245252	-0.013656616	
1737121245253	-0.0023651123	
1737121245254	0.0025177002	
1737121245255	0.014953613	
1737121245256	0.012969971	
1737121245257	0.0031280518	
1737121245258	5.340576E-4	
1737121245259	0.0047302246	
1737121245260	0.0063323975	
1737121245261	0.0012969971	
1737121245262	-0.0015258789	
1737121245263	-0.0033569336	
1737121245264	-0.0012207031	
1737121245265	0.0119018555	
1737121245266	0.0029754639	
1737121245267	-0.008773804	
1737121245268	0.0021362305	
1737121245269	-0.0022125244	
1737121245270	-0.017242432	
1737121245271	-0.00579834	
1737121245272	-0.0050354004	
1737121245273	0.0065612793	
1737121245274	0.011672974	
1737121245275	0.002670288	
1737121245276	-1.5258789E-4	
1737121245277	-0.0038146973	
1737121245278	0.0030517578	
1737121245279	0.009994507	
1737121245280	0.0050354004	
1737121245281	0.0061035156	
1737121245282	-0.001449585	
1737121245283	-0.003967285	
1737121245284	-0.017166138	
1737121245285	-0.025253296	
1737121245286	-0.0061035156	
1737121245287	-0.008773804	
1737121245288	0.0063323975	
1737121245289	0.026855469	
1737121245290	0.020523071	
1737121245291	-0.0011444092	
1737121245292	-0.005874634	
1737121245293	0.009307861	
1737121245294	0.002746582	
1737121245295	-0.005493164	
1737121245296	-1.5258789E-4	
1737121245297	-0.004043579	
1737121245298	-0.0010681152	
1737121245299	0.0045776367	
1737121245300	2.2888184E-4	
1737121245301	-0.008163452	
1737121245302	-0.009536743	
1737121245303	-0.0063323975	
1737121245304	-0.010910034	
1737121245305	-0.0064849854	
1737121245306	0.008926392	
1737121245307	0.010070801	
1737121245308	0.015792847	
1737121245309	0.018615723	
1737121245310	0.009384155	
1737121245311	-2.2888184E-4	
1737121245312	-0.0022888184	
1737121245313	-0.0073242188	
1737121245314	-0.011367798	
1737121245315	-0.0038146973	
1737121245316	5.340576E-4	
1737121245317	9.918213E-4	
1737121245318	-0.0021362305	
1737121245319	-0.004119873	
1737121245320	-0.0018310547	
1737121245321	-0.008010864	
1737121245322	-0.0012969971	
1737121245323	0.005874634	
1737121245324	-9.1552734E-4	
1737121245325	0.0037384033	
1737121245326	0.01121521	
1737121245327	0.012054443	
1737121245328	0.007019043	
1737121245329	0.0049591064	
1737121245330	0.0029754639	
1737121245331	-0.005569458	
1737121245332	-6.866455E-4	
1737121245333	0.006942749	
1737121245334	0.0019073486	
1737121245335	-8.392334E-4	
1737121245336	0.002670288	
1737121245337	-0.001373291	
1737121245338	-0.0024414062	
1737121245339	8.392334E-4	
1737121245340	0.0018310547	
1737121245341	-0.0050354004	
1737121245342	-0.010299683	
1737121245343	-0.009765625	
1737121245344	-0.009765625	
1737121245345	-0.006713867	
1737121245346	-0.0029754639	
1737121245347	0.0015258789	
1737121245348	0.0048065186	
1737121245349	0.0049591064	
1737121245350	0.0012207031	
1737121245351	-2.2888184E-4	
1737121245352	-0.0012969971	
1737121245353	-0.005722046	
1737121245354	0.0022888184	
1737121245355	0.005569458	
1737121245356	0.004501343	
1737121245357	0.0029754639	
1737121245358	-9.1552734E-4	
1737121245359	0.004196167	
1737121245360	-4.5776367E-4	
1737121245361	0.004043579	
1737121245362	0.007858276	
1737121245363	0.0047302246	
1737121245364	0.0033569336	
1737121245365	-0.0038146973	
1737121245366	-0.005264282	
1737121245367	-0.0025939941	
1737121245368	0.0048828125	
1737121245369	0.0021362305	
1737121245370	0.0012969971	
1737121245371	0.005645752	
1737121245372	6.866455E-4	
1737121245373	0.0019836426	
1737121245374	0.0019073486	
1737121245375	-0.0037384033	
1737121245376	-0.0036621094	
1737121245377	-0.007019043	
1737121245378	-0.0034332275	
1737121245379	-0.004501343	
1737121245380	-0.010299683	
1737121245381	-0.0015258789	
1737121245382	-0.005493164	
1737121245383	-0.00289917	
1737121245384	-2.2888184E-4	
1737121245385	0.0023651123	
1737121245386	0.009002686	
1737121245387	0.0024414062	
1737121245388	0.0062561035	
1737121245389	0.0049591064	
1737121245390	6.866455E-4	
1737121245391	0.0018310547	
1737121245392	0.0051116943	
1737121245393	0.008850098	
1737121245394	0.008392334	
1737121245395	0.0050354004	
1737121245396	0.0051879883	
1737121245397	5.340576E-4	
1737121245398	-0.0020599365	
1737121245399	-6.1035156E-4	
1737121245400	-0.0035858154	
1737121245401	-0.012283325	
1737121245402	-0.010223389	
1737121245403	0.0012207031	
1737121245404	-0.0051116943	
1737121245405	-0.011138916	
1737121245406	-5.340576E-4	
1737121245407	-0.009765625	
1737121245408	-0.0051879883	
1737121245409	0.0021362305	
1737121245410	-0.0038146973	
1737121245411	0.003967285	
1737121245412	0.0119018555	
1737121245413	0.009689331	
1737121245414	0.0047302246	
1737121245415	0.0062561035	
1737121245416	0.009536743	
1737121245417	0.02357483	
1737121245418	0.026397705	
1737121245419	0.00869751	
1737121245420	-0.0075531006	
1737121245421	-2.2888184E-4	
1737121245422	-0.0038909912	
1737121245423	-0.015563965	
1737121245424	-0.009918213	
1737121245425	-0.014190674	
1737121245426	-0.017623901	
1737121245427	-0.016326904	
1737121245428	-0.014190674	
1737121245429	-0.005874634	
1737121245430	0.0024414062	
1737121245431	0.005722046	
1737121245432	0.0022888184	
1737121245433	0.011138916	
1737121245434	-0.0016021729	
1737121245435	0.002822876	
1737121245436	0.014343262	
1737121245437	0.003967285	
1737121245438	-3.0517578E-4	
1737121245439	-0.0038146973	
1737121245440	-0.0017547607	
1737121245441	-0.0021362305	
1737121245442	-0.005493164	
1737121245443	2.2888184E-4	
1737121245444	0.0038146973	
1737121245445	0.0035858154	
1737121245446	0.00869751	
1737121245447	0.0045776367	
1737121245448	0.009994507	
1737121245449	0.008163452	
1737121245450	-0.0036621094	
1737121245451	-0.0024414062	
1737121245452	-0.008621216	
1737121245453	-0.011367798	
1737121245454	0.0060272217	
1737121245455	0.013046265	
1737121245456	0.012969971	
1737121245457	0.011444092	
1737121245458	-0.0035858154	
1737121245459	-0.013809204	
1737121245460	-0.018310547	
1737121245461	-0.015029907	
1737121245462	-0.0050354004	
1737121245463	-5.340576E-4	
1737121245464	0.0065612793	
1737121245465	0.015411377	
1737121245466	0.006866455	
1737121245467	-9.1552734E-4	
1737121245468	-0.0035858154	
1737121245469	2.2888184E-4	
1737121245470	0.0061798096	
1737121245471	0.0062561035	
1737121245472	-8.392334E-4	
1737121245473	8.392334E-4	
1737121245474	0.0047302246	
1737121245475	-0.006866455	
1737121245476	-0.0019073486	
1737121245477	-9.918213E-4	
1737121245478	-0.0016784668	
1737121245479	-8.392334E-4	
1737121245480	-0.0015258789	
1737121245481	-0.0046539307	
1737121245482	-0.0061798096	
1737121245483	0.0025177002	
1737121245484	0.004196167	
1737121245485	-7.6293945E-4	
1737121245486	0.0	
1737121245487	-0.005874634	
1737121245488	-0.00579834	
1737121245489	-3.0517578E-4	
1737121245490	0.0019073486	
1737121245491	0.016555786	
1737121245492	0.009231567	
1737121245493	0.0010681152	
1737121245494	0.009765625	
1737121245495	0.0024414062	
1737121245496	-0.009994507	
1737121245497	-0.01838684	
1737121245498	-0.012435913	
1737121245499	8.392334E-4	
1737121245500	0.0060272217	
1737121245501	0.0021362305	
1737121245502	-0.0032043457	
1737121245503	0.002670288	
1737121245504	0.0038909912	
1737121245505	0.0011444092	
1737121245506	0.0033569336	
1737121245507	0.0033569336	
1737121245508	3.0517578E-4	
1737121245509	9.918213E-4	
1737121245510	0.009002686	
1737121245511	0.00793457	
1737121245512	0.0022888184	
1737121245513	0.0010681152	
1737121245514	0.0050354004	
1737121245515	-1.5258789E-4	
1737121245516	-0.0037384033	
1737121245517	-0.0031280518	
1737121245518	-0.0035095215	
1737121245519	0.0016784668	
1737121245520	-0.007095337	
1737121245521	-0.017471313	
1737121245522	-0.011978149	
1737121245523	-0.008773804	
1737121245524	-0.006713867	
1737121245525	0.009231567	
1737121245526	0.020370483	
1737121245527	0.016021729	
1737121245528	4.5776367E-4	
1737121245529	0.0020599365	
1737121245530	0.003967285	
1737121245531	0.0030517578	
1737121245532	0.010910034	
1737121245533	0.004348755	
1737121245534	0.002746582	
1737121245535	-0.006866455	
1737121245536	-0.0061798096	
1737121245537	0.0025939941	
1737121245538	-0.001449585	
1737121245539	-0.005264282	
1737121245540	-0.0038909912	
1737121245541	-0.01449585	
1737121245542	-0.017700195	
1737121245543	-0.0021362305	
1737121245544	-0.0035858154	
1737121245545	-0.0012207031	
1737121245546	-7.6293945E-4	
1737121245547	-0.0023651123	
1737121245548	0.004196167	
1737121245549	0.004196167	
1737121245550	0.008392334	
1737121245551	0.004272461	
1737121245552	0.001449585	
1737121245553	0.009918213	
1737121245554	0.00831604	
1737121245555	0.0061035156	
1737121245556	0.0066375732	
1737121245557	0.0060272217	
1737121245558	0.0038146973	
1737121245559	-0.004043579	
1737121245560	-0.005340576	
1737121245561	-0.004501343	
1737121245562	-0.004272461	
1737121245563	-3.8146973E-4	
1737121245564	-0.0037384033	
1737121245565	-0.0019836426	
1737121245566	0.0017547607	
1737121245567	-0.0038146973	
1737121245568	-0.002746582	
1737121245569	-0.0031280518	
1737121245570	-7.6293945E-5	
1737121245571	0.00541687	
1737121245572	0.0059509277	
1737121245573	0.008621216	
1737121245574	-1.5258789E-4	
1737121245575	-0.0050354004	
1737121245576	-0.0036621094	
1737121245577	-0.004196167	
1737121245578	-5.340576E-4	
1737121245579	-0.0038909912	
1737121245580	-0.0022125244	
1737121245581	7.6293945E-4	
1737121245582	-0.005874634	
1737121245583	-0.0048828125	
1737121245584	0.0037384033	
1737121245585	0.0059509277	
1737121245586	0.0025177002	
1737121245587	0.005264282	
1737121245588	0.005569458	
1737121245589	-1.5258789E-4	
1737121245590	-0.006866455	
1737121245591	-1.5258789E-4	
1737121245592	0.0061798096	
1737121245593	0.0060272217	
1737121245594	0.005340576	
1737121245595	0.0063323975	
1737121245596	0.00793457	
1737121245597	0.0037384033	
1737121245598	-0.0021362305	
1737121245599	-6.1035156E-4	
1737121245600	0.0031280518	
1737121245601	-0.006942749	
1737121245602	-0.00541687	
1737121245603	-0.001373291	
1737121245604	-0.009918213	
1737121245605	-0.01083374	
1737121245606	-0.0048065186	
1737121245607	-0.0036621094	
1737121245608	-0.0035095215	
1737121245609	-0.0016021729	
1737121245610	1.5258789E-4	
1737121245611	8.392334E-4	
1737121245612	0.0031280518	
1737121245613	0.0064849854	
1737121245614	0.0012969971	
1737121245615	0.0034332275	
1737121245616	0.004501343	
1737121245617	9.918213E-4	
1737121245618	0.008010864	
1737121245619	0.002822876	
1737121245620	-0.0012207031	
1737121245621	0.0016021729	
1737121245622	-0.0090789795	
1737121245623	-0.007171631	
1737121245624	0.0019073486	
1737121245625	4.5776367E-4	
1737121245626	0.008087158	
1737121245627	0.0032806396	
1737121245628	-0.0038146973	
1737121245629	0.0025177002	
1737121245630	0.0015258789	
1737121245631	0.0119018555	
1737121245632	0.009002686	
1737121245633	4.5776367E-4	
1737121245634	0.0016784668	
1737121245635	-0.008468628	
1737121245636	-0.015411377	
1737121245637	-0.0074768066	
1737121245638	2.2888184E-4	
1737121245639	-0.0017547607	
1737121245640	-0.0046539307	
1737121245641	-0.0035858154	
1737121245642	-3.0517578E-4	
1737121245643	-0.0090789795	
1737121245644	-1.5258789E-4	
1737121245645	0.0060272217	
1737121245646	0.0019836426	
1737121245647	0.0025177002	
1737121245648	-0.0016021729	
1737121245649	-1.5258789E-4	
1737121245650	0.0011444092	
1737121245651	0.012130737	
1737121245652	0.009384155	
1737121245653	0.0025177002	
1737121245654	0.0090789795	
1737121245655	0.0048065186	
1737121245656	9.918213E-4	
1737121245657	2.2888184E-4	
1737121245658	-0.003967285	
1737121245659	-0.005645752	
1737121245660	-0.005569458	
1737121245661	-0.0024414062	
1737121245662	-0.0022125244	
1737121245663	-0.0016784668	
1737121245664	-0.0035858154	
1737121245665	-0.0062561035	
1737121245666	-0.004043579	
1737121245667	-0.0018310547	
1737121245668	0.0021362305	
1737121245669	0.0118255615	
1737121245670	0.013427734	
1737121245671	0.0073242188	
1737121245672	-0.003967285	
1737121245673	-0.008926392	
1737121245674	-0.005493164	
1737121245675	0.0010681152	
1737121245676	6.1035156E-4	
1737121245677	-6.1035156E-4	
1737121245678	0.004348755	
1737121245679	0.002670288	
1737121245680	-6.1035156E-4	
1737121245681	-0.0033569336	
1737121245682	-0.0021362305	
1737121245683	-0.002670288	
1737121245684	-0.004119873	
1737121245685	5.340576E-4	
1737121245686	0.00579834	
1737121245687	0.002822876	
1737121245688	8.392334E-4	
1737121245689	-0.004501343	
1737121245690	-0.0022888184	
1737121245691	0.010986328	
1737121245692	0.012283325	
1737121245693	0.007019043	
1737121245694	0.0023651123	
1737121245695	-0.0035095215	
1737121245696	-0.0074005127	
1737121245697	-0.009689331	
1737121245698	-0.012283325	
1737121245699	-0.01121521	
1737121245700	0.0047302246	
1737121245701	2.2888184E-4	
1737121245702	-0.0066375732	
1737121245703	0.005722046	
1737121245704	0.0012207031	
1737121245705	-0.016403198	
1737121245706	-0.012283325	
1737121245707	-0.0010681152	
1737121245708	7.6293945E-4	
1737121245709	0.020828247	
1737121245710	0.029525757	
1737121245711	0.014266968	
1737121245712	0.009384155	
1737121245713	0.0064849854	
1737121245714	0.0038146973	
1737121245715	0.0059509277	
1737121245716	0.0017547607	
1737121245717	-7.6293945E-5	
1737121245718	-0.0048828125	
1737121245719	-0.015487671	
1737121245720	-0.009918213	
1737121245721	-0.0073242188	
1737121245722	-0.010147095	
1737121245723	-0.009384155	
1737121245724	-0.009841919	
1737121245725	-0.0076293945	
1737121245726	-0.0048065186	
1737121245727	6.866455E-4	
1737121245728	0.0019836426	
1737121245729	0.0036621094	
1737121245730	-0.0012207031	
1737121245731	6.1035156E-4	
1737121245732	0.004196167	
1737121245733	-0.0019073486	
1737121245734	0.001449585	
1737121245735	0.007247925	
1737121245736	0.007095337	
1737121245737	0.004196167	
1737121245738	0.009536743	
1737121245739	0.008239746	
1737121245740	-0.00579834	
1737121245741	0.005722046	
1737121245742	0.015335083	
1737121245743	0.0022888184	
1737121245744	-0.0023651123	
1737121245745	-0.0035858154	
1737121245746	-0.0063323975	
1737121245747	0.001373291	
1737121245748	6.866455E-4	
1737121245749	-0.006866455	
1737121245750	-2.2888184E-4	
1737121245751	-0.0019073486	
1737121245752	-0.002746582	
1737121245753	0.0060272217	
1737121245754	0.004348755	
1737121245755	7.6293945E-5	
1737121245756	0.0022125244	
1737121245757	9.1552734E-4	
1737121245758	-0.0023651123	
1737121245759	-0.0010681152	
1737121245760	-3.0517578E-4	
1737121245761	-0.001449585	
1737121245762	-0.008087158	
1737121245763	-0.013885498	
1737121245764	-0.0132751465	
1737121245765	-0.010299683	
1737121245766	-0.0015258789	
1737121245767	0.0051879883	
1737121245768	0.006713867	
1737121245769	0.008087158	
1737121245770	0.012359619	
1737121245771	0.0051879883	
1737121245772	-0.0016784668	
1737121245773	-7.6293945E-5	
1737121245774	-8.392334E-4	
1737121245775	0.00579834	
1737121245776	0.0016784668	
1737121245777	-0.0032806396	
1737121245778	0.0020599365	
1737121245779	-2.2888184E-4	
1737121245780	-0.0022888184	
1737121245781	-0.0016021729	
1737121245782	5.340576E-4	
1737121245783	3.8146973E-4	
1737121245784	0.002670288	
1737121245785	0.0032806396	
1737121245786	-0.0016784668	
1737121245787	-0.00289917	
1737121245788	-0.0024414062	
1737121245789	-0.0010681152	
1737121245790	0.005340576	
1737121245791	0.0049591064	
1737121245792	1.5258789E-4	
1737121245793	0.0049591064	
1737121245794	5.340576E-4	
1737121245795	-0.009765625	
1737121245796	-0.004119873	
1737121245797	0.001449585	
1737121245798	0.00289917	
1737121245799	-0.004196167	
1737121245800	-0.006942749	
1737121245801	2.2888184E-4	
1737121245802	0.0010681152	
1737121245803	-0.0046539307	
1737121245804	-0.011138916	
1737121245805	6.866455E-4	
1737121245806	0.008087158	
1737121245807	2.2888184E-4	
1737121245808	0.004119873	
1737121245809	0.0059509277	
1737121245810	0.005722046	
1737121245811	0.008239746	
1737121245812	0.0029754639	
1737121245813	5.340576E-4	
1737121245814	7.6293945E-4	
1737121245815	7.6293945E-5	
1737121245816	-7.6293945E-5	
1737121245817	0.0025939941	
1737121245818	0.0047302246	
1737121245819	0.012588501	
1737121245820	0.011291504	
1737121245821	-0.005340576	
1737121245822	-0.0104522705	
1737121245823	-0.015716553	
1737121245824	-0.018615723	
1737121245825	-0.008926392	
1737121245826	-0.0038146973	
1737121245827	0.0029754639	
1737121245828	0.004043579	
1737121245829	-0.0022888184	
1737121245830	0.001373291	
1737121245831	-0.0019836426	
1737121245832	-0.0018310547	
1737121245833	0.005874634	
1737121245834	0.006713867	
1737121245835	0.004043579	
1737121245836	0.003967285	
1737121245837	0.0048828125	
1737121245838	7.6293945E-5	
1737121245839	-3.8146973E-4	
1737121245840	0.0038146973	
1737121245841	0.001373291	
1737121245842	-0.001449585	
1737121245843	-0.0016021729	
1737121245844	-0.0025939941	
1737121245845	-0.0061798096	
1737121245846	-0.008163452	
1737121245847	-0.0037384033	
1737121245848	-4.5776367E-4	
1737121245849	-0.0019073486	
1737121245850	-0.0019073486	
1737121245851	-6.1035156E-4	
1737121245852	-0.0025939941	
1737121245853	-0.0022125244	
1737121245854	0.0090789795	
1737121245855	0.012512207	
1737121245856	0.0065612793	
1737121245857	0.0063323975	
1737121245858	0.0034332275	
1737121245859	0.0020599365	
1737121245860	-6.1035156E-4	
1737121245861	-0.002746582	
1737121245862	-6.1035156E-4	
1737121245863	-0.0074768066	
1737121245864	-0.0104522705	
1737121245865	3.8146973E-4	
1737121245866	0.004425049	
1737121245867	0.005569458	
1737121245868	0.009765625	
1737121245869	-2.2888184E-4	
1737121245870	-5.340576E-4	
1737121245871	0.005493164	
1737121245872	-6.866455E-4	
1737121245873	-5.340576E-4	
1737121245874	-0.0016784668	
1737121245875	-0.009307861	
1737121245876	-0.010757446	
1737121245877	-0.008392334	
1737121245878	-0.0061798096	
1737121245879	0.0012969971	
1737121245880	0.014801025	
1737121245881	0.013809204	
1737121245882	5.340576E-4	
1737121245883	-0.004501343	
1737121245884	-0.0019836426	
1737121245885	-3.8146973E-4	
1737121245886	-6.866455E-4	
1737121245887	-0.009002686	
1737121245888	-0.011062622	
1737121245889	0.0030517578	
1737121245890	0.0064086914	
1737121245891	-0.0010681152	
1737121245892	7.6293945E-5	
1737121245893	0.004196167	
1737121245894	0.0035858154	
1737121245895	-0.0051879883	
1737121245896	-0.0016784668	
1737121245897	0.0035858154	
1737121245898	-7.6293945E-4	
1737121245899	-0.0029754639	
1737121245900	-0.009384155	
1737121245901	-0.0017547607	
1737121245902	0.004501343	
1737121245903	0.008163452	
1737121245904	0.02494812	
1737121245905	0.01701355	
1737121245906	0.004043579	
1737121245907	-0.002670288	
1737121245908	-0.0119018555	
1737121245909	-0.0033569336	
1737121245910	-6.1035156E-4	
1737121245911	-0.006942749	
1737121245912	-0.0038146973	
1737121245913	-0.004501343	
1737121245914	-0.0024414062	
1737121245915	0.0038146973	
1737121245916	0.0011444092	
1737121245917	-0.0048065186	
1737121245918	-0.004272461	
1737121245919	0.0016784668	
1737121245920	0.0	
1737121245921	-0.004196167	
1737121245922	-0.005569458	
1737121245923	-0.009002686	
1737121245924	-0.0019836426	
1737121245925	0.0051879883	
1737121245926	-0.0010681152	
1737121245927	-0.0022888184	
1737121245928	0.002670288	
1737121245929	0.0020599365	
1737121245930	0.001449585	
1737121245931	0.005569458	
1737121245932	0.012283325	
1737121245933	0.010528564	
1737121245934	0.00289917	
1737121245935	0.0051879883	
1737121245936	0.005722046	
1737121245937	-7.6293945E-5	
1737121245938	-0.0025939941	
1737121245939	7.6293945E-5	
1737121245940	0.0032806396	
1737121245941	-0.0019073486	
1737121245942	-0.009918213	
1737121245943	-0.008926392	
1737121245944	-0.0034332275	
1737121245945	-0.0012969971	
1737121245946	-0.0061798096	
1737121245947	-0.012741089	
1737121245948	-0.0077056885	
1737121245949	-0.0017547607	
1737121245950	-0.004043579	
1737121245951	0.0020599365	
1737121245952	0.0061798096	
1737121245953	0.0022125244	
1737121245954	0.005722046	
1737121245955	0.007019043	
1737121245956	9.1552734E-4	
1737121245957	0.002670288	
1737121245958	0.008850098	
1737121245959	0.009689331	
1737121245960	0.0021362305	
1737121245961	-0.00869751	
1737121245962	-0.0012207031	
1737121245963	0.0023651123	
1737121245964	-0.007858276	
1737121245965	-0.0025939941	
1737121245966	0.004196167	
1737121245967	0.0060272217	
1737121245968	0.006790161	
1737121245969	9.1552734E-4	
1737121245970	-0.004043579	
1737121245971	-0.0077819824	
1737121245972	-0.008010864	
1737121245973	9.918213E-4	
1737121245974	0.0060272217	
1737121245975	-0.0031280518	
1737121245976	-0.0062561035	
1737121245977	-0.0010681152	
1737121245978	-0.005569458	
1737121245979	0.0024414062	
1737121245980	0.011672974	
1737121245981	0.006942749	
1737121245982	0.0035095215	
1737121245983	-0.0011444092	
1737121245984	0.0034332275	
1737121245985	0.009613037	
1737121245986	0.0019836426	
1737121245987	-0.005722046	
1737121245988	-3.0517578E-4	
1737121245989	0.0035858154	
1737121245990	-0.0045776367	
1737121245991	-0.0047302246	
1737121245992	-0.0132751465	
1737121245993	-0.022735596	
1737121245994	-0.002746582	
1737121245995	0.003967285	
1737121245996	0.0012207031	
1737121245997	0.0048065186	
1737121245998	0.0050354004	
1737121245999	0.009689331	
1737121246000	7.6293945E-4	
1737121246001	-0.0038909912	
1737121246002	6.1035156E-4	
1737121246003	-0.0073242188	
1737121246004	-3.0517578E-4	
1737121246005	0.004043579	
1737121246006	6.866455E-4	
1737121246007	0.0077056885	
1737121246008	-0.0018310547	
1737121246009	-0.01159668	
1737121246010	0.0011444092	
1737121246011	0.0061798096	
1737121246012	4.5776367E-4	
1737121246013	0.0038146973	
1737121246014	0.01083374	
1737121246015	0.008621216	
1737121246016	0.0010681152	
1737121246017	-0.004043579	
1737121246018	-0.0059509277	
1737121246019	-0.009002686	
1737121246020	-0.011291504	
1737121246021	-0.0076293945	
1737121246022	-0.0012969971	
1737121246023	0.013198853	
1737121246024	0.022735596	
1737121246025	0.011978149	
1737121246026	-0.0045776367	
1737121246027	-0.011291504	
1737121246028	-0.0032806396	
1737121246029	0.002746582	
1737121246030	0.0	
1737121246031	-0.0030517578	
1737121246032	-0.006790161	
1737121246033	0.0017547607	
1737121246034	0.011291504	
1737121246035	0.002746582	
1737121246036	7.6293945E-5	
1737121246037	-0.0029754639	
1737121246038	-0.011444092	
1737121246039	-0.007019043	
1737121246040	-0.0076293945	
1737121246041	-0.008163452	
1737121246042	-0.0030517578	
1737121246043	-8.392334E-4	
1737121246044	0.0	
1737121246045	6.866455E-4	
1737121246046	0.006790161	
1737121246047	0.007095337	
1737121246048	0.0037384033	
1737121246049	0.007095337	
1737121246050	0.002746582	
1737121246051	-0.002670288	
1737121246052	7.6293945E-5	
1737121246053	0.0023651123	
1737121246054	0.0038909912	
1737121246055	0.005645752	
1737121246056	0.005340576	
1737121246057	0.0030517578	
1737121246058	-0.0023651123	
1737121246059	-0.00579834	
1737121246060	-0.0023651123	
1737121246061	-0.004196167	
1737121246062	-0.0075531006	
1737121246063	-0.008010864	
1737121246064	-0.0032043457	
1737121246065	3.0517578E-4	
1737121246066	-0.004348755	
1737121246067	-3.0517578E-4	
1737121246068	0.004348755	
1737121246069	0.0046539307	
1737121246070	0.0064849854	
1737121246071	4.5776367E-4	
1737121246072	7.6293945E-4	
1737121246073	0.0030517578	
1737121246074	-4.5776367E-4	
1737121246075	0.0066375732	
1737121246076	0.0030517578	
1737121246077	-0.002670288	
1737121246078	0.0034332275	
1737121246079	-0.0049591064	
1737121246080	-0.006942749	
1737121246081	5.340576E-4	
1737121246082	0.0010681152	
1737121246083	0.0015258789	
1737121246084	6.1035156E-4	
1737121246085	-3.8146973E-4	
1737121246086	-0.006942749	
1737121246087	-0.010070801	
1737121246088	1.5258789E-4	
1737121246089	0.0038146973	
1737121246090	0.0022125244	
1737121246091	0.007171631	
1737121246092	0.0060272217	
1737121246093	0.0048065186	
1737121246094	0.008163452	
1737121246095	-0.0019073486	
1737121246096	-0.012588501	
1737121246097	-0.009231567	
1737121246098	-0.004272461	
1737121246099	-0.004272461	
1737121246100	-0.0019073486	
1737121246101	0.0051116943	
1737121246102	0.0025939941	
1737121246103	-0.0076293945	
1737121246104	-0.005645752	
1737121246105	0.002822876	
1737121246106	0.0022888184	
1737121246107	0.0016021729	
1737121246108	0.00541687	
1737121246109	0.002822876	
1737121246110	6.866455E-4	
1737121246111	7.6293945E-4	
1737121246112	-0.0010681152	
1737121246113	0.00541687	
1737121246114	0.0032806396	
1737121246115	-0.0020599365	
1737121246116	0.009460449	
1737121246117	0.011672974	
1737121246118	0.0051116943	
1737121246119	0.0019836426	
1737121246120	-9.918213E-4	
1737121246121	-0.0010681152	
1737121246122	-0.0037384033	
1737121246123	-0.005722046	
1737121246124	-0.0049591064	
1737121246125	-0.0029754639	
1737121246126	-0.0030517578	
1737121246127	-0.006866455	
1737121246128	-0.004501343	
1737121246129	-9.918213E-4	
1737121246130	-0.0037384033	
1737121246131	-0.010147095	
1737121246132	-0.006866455	
1737121246133	-0.007858276	
1737121246134	-0.016021729	
1737121246135	-0.004425049	
1737121246136	0.008926392	
1737121246137	0.016174316	
1737121246138	0.022354126	
1737121246139	0.019073486	
1737121246140	0.00831604	
1737121246141	8.392334E-4	
1737121246142	0.005569458	
1737121246143	0.0063323975	
1737121246144	-8.392334E-4	
1737121246145	-0.008087158	
1737121246146	-0.01083374	
1737121246147	-0.007019043	
1737121246148	-0.009155273	
1737121246149	-0.008392334	
1737121246150	-0.0015258789	
1737121246151	-0.0010681152	
1737121246152	8.392334E-4	
1737121246153	0.002822876	
1737121246154	0.0019836426	
1737121246155	0.0012969971	
1737121246156	8.392334E-4	
1737121246157	6.1035156E-4	
1737121246158	6.866455E-4	
1737121246159	0.0048065186	
1737121246160	0.0046539307	
1737121246161	-0.0030517578	
1737121246162	-0.0060272217	
1737121246163	-0.0035095215	
1737121246164	-0.0038146973	
1737121246165	-0.0074768066	
1737121246166	-8.392334E-4	
1737121246167	0.010986328	
1737121246168	0.008087158	
1737121246169	0.00541687	
1737121246170	0.0065612793	
1737121246171	9.918213E-4	
1737121246172	0.002746582	
1737121246173	0.0063323975	
1737121246174	0.0020599365	
1737121246175	0.0019836426	
1737121246176	-3.0517578E-4	
1737121246177	-0.01083374	
1737121246178	-0.011291504	
1737121246179	-0.0038909912	
1737121246180	-0.008392334	
1737121246181	-0.01335144	
1737121246182	-0.0061798096	
1737121246183	-0.0023651123	
1737121246184	0.0025177002	
1737121246185	0.0035095215	
1737121246186	-6.866455E-4	
1737121246187	0.0060272217	
1737121246188	0.002822876	
1737121246189	-0.0066375732	
1737121246190	0.0012969971	
1737121246191	0.005340576	
1737121246192	0.0033569336	
1737121246193	0.008087158	
1737121246194	0.00831604	
1737121246195	0.010299683	
1737121246196	0.011520386	
1737121246197	0.0025177002	
1737121246198	-9.1552734E-4	
1737121246199	-2.2888184E-4	
1737121246200	-0.005722046	
1737121246201	-0.008773804	
1737121246202	-0.008087158	
1737121246203	-0.003967285	
1737121246204	-7.6293945E-4	
1737121246205	-0.0050354004	
1737121246206	-0.0051116943	
1737121246207	-0.0033569336	
1737121246208	-0.00289917	
1737121246209	-9.1552734E-4	
1737121246210	0.0033569336	
1737121246211	0.0104522705	
1737121246212	0.009613037	
1737121246213	0.0019073486	
1737121246214	-0.0017547607	
1737121246215	-0.0010681152	
1737121246216	-0.0017547607	
1737121246217	0.0038146973	
1737121246218	0.0065612793	
1737121246219	-0.0020599365	
1737121246220	-0.004043579	
1737121246221	-0.0048828125	
1737121246222	-0.0023651123	
1737121246223	5.340576E-4	
1737121246224	-0.0073242188	
1737121246225	-0.005722046	
1737121246226	7.6293945E-5	
1737121246227	-0.0048065186	
1737121246228	-0.003967285	
1737121246229	0.0048828125	
1737121246230	0.0023651123	
1737121246231	0.0022888184	
1737121246232	0.0132751465	
1737121246233	0.007171631	
1737121246234	-0.0046539307	
1737121246235	0.0	
1737121246236	-0.001449585	
1737121246237	-0.0018310547	
1737121246238	0.0032806396	
1737121246239	-0.0016021729	
1737121246240	-0.0018310547	
1737121246241	-0.0064849854	
1737121246242	-0.012741089	
1737121246243	-0.0045776367	
1737121246244	-0.0017547607	
1737121246245	-0.0065612793	
1737121246246	-3.8146973E-4	
1737121246247	0.001449585	
1737121246248	-0.0022888184	
1737121246249	0.007247925	
1737121246250	0.006942749	
1737121246251	0.0020599365	
1737121246252	0.005264282	
1737121246253	0.0029754639	
1737121246254	-0.001449585	
1737121246255	-0.001449585	
1737121246256	0.010604858	
1737121246257	0.017700195	
1737121246258	0.007019043	
1737121246259	-0.005340576	
1737121246260	-0.0021362305	
1737121246261	0.008239746	
1737121246262	0.0046539307	
1737121246263	-0.0062561035	
1737121246264	-0.008621216	
1737121246265	-0.006790161	
1737121246266	-0.015335083	
1737121246267	-0.01876831	
1737121246268	-0.0073242188	
1737121246269	0.008010864	
1737121246270	0.016326904	
1737121246271	0.016403198	
1737121246272	0.0119018555	
1737121246273	-7.6293945E-4	
1737121246274	5.340576E-4	
1737121246275	0.0030517578	
1737121246276	-0.010299683	
1737121246277	-0.012359619	
1737121246278	-0.010757446	
1737121246279	-0.006942749	
1737121246280	-0.0011444092	
1737121246281	-0.0034332275	
1737121246282	-0.0032806396	
1737121246283	-0.004043579	
1737121246284	2.2888184E-4	
1737121246285	0.005569458	
1737121246286	-0.0025177002	
1737121246287	-0.0023651123	
1737121246288	0.004501343	
1737121246289	0.006713867	
1737121246290	0.0016784668	
1737121246291	-0.0073242188	
1737121246292	-0.002746582	
1737121246293	0.0038909912	
1737121246294	9.918213E-4	
1737121246295	-0.0019073486	
1737121246296	-0.0025177002	
1737121246297	-0.0019073486	
1737121246298	0.008392334	
1737121246299	0.015563965	
1737121246300	0.015945435	
1737121246301	0.018005371	
1737121246302	0.007247925	
1737121246303	-0.0016021729	
1737121246304	-0.002822876	
1737121246305	-0.004196167	
1737121246306	-0.0032043457	
1737121246307	-0.010604858	
1737121246308	-0.010299683	
1737121246309	-0.006713867	
1737121246310	-0.006866455	
1737121246311	6.866455E-4	
1737121246312	-3.0517578E-4	
1737121246313	-0.005493164	
1737121246314	-0.006942749	
1737121246315	-0.0061798096	
1737121246316	-2.2888184E-4	
1737121246317	0.005569458	
1737121246318	0.008850098	
1737121246319	0.004272461	
1737121246320	-0.0046539307	
1737121246321	-0.0119018555	
1737121246322	-0.007171631	
1737121246323	0.0064086914	
1737121246324	0.0024414062	
1737121246325	-0.0030517578	
1737121246326	1.5258789E-4	
1737121246327	-2.2888184E-4	
1737121246328	0.002670288	
1737121246329	0.0015258789	
1737121246330	-0.0024414062	
1737121246331	0.005264282	
1737121246332	0.0119018555	
1737121246333	0.006713867	
1737121246334	2.2888184E-4	
1737121246335	-0.0011444092	
1737121246336	9.918213E-4	
1737121246337	0.0025177002	
1737121246338	-0.0031280518	
1737121246339	-8.392334E-4	
1737121246340	0.004348755	
1737121246341	0.0	
1737121246342	-0.0032806396	
1737121246343	-0.004043579	
1737121246344	-0.004501343	
1737121246345	-0.005493164	
1737121246346	-0.004348755	
1737121246347	-0.002670288	
1737121246348	-5.340576E-4	
1737121246349	7.6293945E-5	
1737121246350	0.0010681152	
1737121246351	0.0045776367	
1737121246352	0.0046539307	
1737121246353	0.0066375732	
1737121246354	0.0023651123	
1737121246355	0.0018310547	
1737121246356	0.008163452	
1737121246357	0.0025939941	
1737121246358	-0.004119873	
1737121246359	-0.0059509277	
1737121246360	-0.007858276	
1737121246361	-0.0051116943	
1737121246362	-0.0035095215	
1737121246363	-0.005722046	
1737121246364	-0.0033569336	
1737121246365	-6.1035156E-4	
1737121246366	0.0022888184	
1737121246367	0.0031280518	
1737121246368	4.5776367E-4	
1737121246369	-5.340576E-4	
1737121246370	0.0011444092	
1737121246371	0.009460449	
1737121246372	0.012283325	
1737121246373	-0.0010681152	
1737121246374	-0.018310547	
1737121246375	-0.020141602	
1737121246376	-0.008010864	
1737121246377	2.2888184E-4	
1737121246378	0.011978149	
1737121246379	0.022659302	
1737121246380	0.024032593	
1737121246381	0.0075531006	
1737121246382	-0.007247925	
1737121246383	-0.011749268	
1737121246384	-0.012969971	
1737121246385	0.003967285	
1737121246386	0.0048828125	
1737121246387	-0.009918213	
1737121246388	-0.009384155	
1737121246389	-0.0012969971	
1737121246390	0.008544922	
1737121246391	0.0021362305	
1737121246392	-0.004348755	
1737121246393	-2.2888184E-4	
1737121246394	-0.0029754639	
1737121246395	-0.0017547607	
1737121246396	-0.0048065186	
1737121246397	7.6293945E-4	
1737121246398	0.011672974	
1737121246399	9.918213E-4	
1737121246400	-7.6293945E-5	
1737121246401	0.0	
1737121246402	-0.0075531006	
1737121246403	-0.004196167	
1737121246404	-0.004196167	
1737121246405	-7.6293945E-4	
1737121246406	0.00793457	
1737121246407	0.008850098	
1737121246408	0.0017547607	
1737121246409	0.002746582	
1737121246410	0.0051116943	
1737121246411	-0.005340576	
1737121246412	-0.008621216	
1737121246413	-0.007171631	
1737121246414	-0.006942749	
1737121246415	0.0048065186	
1737121246416	0.011138916	
1737121246417	0.0048065186	
1737121246418	0.0023651123	
1737121246419	-0.00289917	
1737121246420	-0.0025177002	
1737121246421	-0.004348755	
1737121246422	-0.0045776367	
1737121246423	0.0063323975	
1737121246424	0.00579834	
1737121246425	7.6293945E-5	
1737121246426	-0.012664795	
1737121246427	-0.015945435	
1737121246428	-0.0024414062	
1737121246429	9.918213E-4	
1737121246430	0.004272461	
1737121246431	0.006713867	
1737121246432	0.0050354004	
1737121246433	0.008621216	
1737121246434	0.0061798096	
1737121246435	-0.0015258789	
1737121246436	-0.002746582	
1737121246437	-0.004348755	
1737121246438	7.6293945E-5	
1737121246439	0.0066375732	
1737121246440	0.005874634	
1737121246441	0.0025939941	
1737121246442	0.0018310547	
1737121246443	0.0015258789	
1737121246444	-0.0031280518	
1737121246445	-0.0066375732	
1737121246446	-0.007019043	
1737121246447	-0.0062561035	
1737121246448	-6.1035156E-4	
1737121246449	7.6293945E-5	
1737121246450	-0.0046539307	
1737121246451	-0.0012207031	
1737121246452	3.8146973E-4	
1737121246453	-0.0025939941	
1737121246454	0.0010681152	
1737121246455	0.0010681152	
1737121246456	0.0011444092	
1737121246457	0.0036621094	
1737121246458	-6.1035156E-4	
1737121246459	-7.6293945E-4	
1737121246460	-0.004425049	
1737121246461	-0.007247925	
1737121246462	-7.6293945E-5	
1737121246463	9.918213E-4	
1737121246464	7.6293945E-4	
1737121246465	0.004348755	
1737121246466	0.005569458	
1737121246467	0.0012969971	
1737121246468	-0.0046539307	
1737121246469	0.0034332275	
1737121246470	0.010147095	
1737121246471	0.005874634	
1737121246472	-7.6293945E-4	
1737121246473	-0.0018310547	
1737121246474	0.0031280518	
1737121246475	0.0059509277	
1737121246476	0.0033569336	
1737121246477	-0.008239746	
1737121246478	-0.008926392	
1737121246479	-0.0048828125	
1737121246480	-0.020370483	
1737121246481	-0.019302368	
1737121246482	-8.392334E-4	
1737121246483	0.009155273	
1737121246484	0.012130737	
1737121246485	0.017166138	
1737121246486	0.018157959	
1737121246487	9.918213E-4	
1737121246488	-0.0077056885	
1737121246489	-1.5258789E-4	
1737121246490	-0.0016021729	
1737121246491	-1.5258789E-4	
1737121246492	0.002822876	
1737121246493	-0.0045776367	
1737121246494	-0.007247925	
1737121246495	7.6293945E-4	
1737121246496	-0.0011444092	
1737121246497	-0.0035095215	
1737121246498	0.010223389	
1737121246499	0.0146484375	
1737121246500	0.00541687	
1737121246501	-0.00579834	
1737121246502	-0.014419556	
1737121246503	-0.015945435	
1737121246504	-0.012512207	
1737121246505	-0.0065612793	
1737121246506	-0.0017547607	
1737121246507	0.0016021729	
1737121246508	-6.866455E-4	
1737121246509	-0.009155273	
1737121246510	-0.0024414062	
1737121246511	0.007019043	
1737121246512	0.0033569336	
1737121246513	0.007247925	
1737121246514	0.010223389	
1737121246515	0.0048065186	
1737121246516	0.007171631	
1737121246517	0.008087158	
1737121246518	0.005874634	
1737121246519	0.0025177002	
1737121246520	9.1552734E-4	
1737121246521	-0.0012207031	
1737121246522	-0.008087158	
1737121246523	-0.008163452	
1737121246524	-0.011291504	
1737121246525	-0.015792847	
1737121246526	-0.004119873	
1737121246527	0.008392334	
1737121246528	0.0060272217	
1737121246529	0.0077056885	
1737121246530	0.011138916	
1737121246531	0.0012969971	
1737121246532	-0.0031280518	
1737121246533	0.0038146973	
1737121246534	0.0024414062	
1737121246535	1.5258789E-4	
1737121246536	0.0077819824	
1737121246537	0.00793457	
1737121246538	-0.0012207031	
1737121246539	-0.0035858154	
1737121246540	-0.004501343	
1737121246541	-0.005874634	
1737121246542	-0.005874634	
1737121246543	-0.0075531006	
1737121246544	-0.0025939941	
1737121246545	-0.0010681152	
1737121246546	-0.0016021729	
1737121246547	0.001449585	
1737121246548	-0.0035095215	
1737121246549	-0.004425049	
1737121246550	-0.00289917	
1737121246551	-0.00541687	
1737121246552	-0.0019073486	
1737121246553	0.0035095215	
1737121246554	0.004272461	
1737121246555	-0.0018310547	
1737121246556	-0.004119873	
1737121246557	0.0035095215	
1737121246558	0.006942749	
1737121246559	0.009231567	
1737121246560	0.0074768066	
1737121246561	1.5258789E-4	
1737121246562	-6.1035156E-4	
1737121246563	-7.6293945E-5	
1737121246564	-0.0065612793	
1737121246565	-0.0066375732	
1737121246566	-2.2888184E-4	
1737121246567	-0.0048828125	
1737121246568	-0.0012207031	
1737121246569	0.004501343	
1737121246570	-0.002746582	
1737121246571	-0.0021362305	
1737121246572	0.0018310547	
1737121246573	-0.0019836426	
1737121246574	0.0030517578	
1737121246575	0.007858276	
1737121246576	0.0016021729	
1737121246577	-0.005645752	
1737121246578	-0.0022125244	
1737121246579	0.0030517578	
1737121246580	0.0012207031	
1737121246581	0.0036621094	
1737121246582	0.0064086914	
1737121246583	0.0074005127	
1737121246584	0.0064086914	
1737121246585	-0.0051116943	
1737121246586	-0.013961792	
1737121246587	-0.014343262	
1737121246588	-0.0062561035	
1737121246589	0.0038909912	
1737121246590	0.0018310547	
1737121246591	9.1552734E-4	
1737121246592	0.0035858154	
1737121246593	-0.008010864	
1737121246594	-0.009307861	
1737121246595	-0.0010681152	
1737121246596	-1.5258789E-4	
1737121246597	0.00541687	
1737121246598	0.018615723	
1737121246599	0.01838684	
1737121246600	0.0060272217	
1737121246601	-0.0015258789	
1737121246602	-0.005874634	
1737121246603	-0.009384155	
1737121246604	-0.00289917	
1737121246605	-0.0065612793	
1737121246606	-0.009689331	
1737121246607	-8.392334E-4	
1737121246608	-7.6293945E-5	
1737121246609	-0.0024414062	
1737121246610	0.002670288	
1737121246611	0.005569458	
1737121246612	-1.5258789E-4	
1737121246613	-0.0064849854	
1737121246614	-0.0090789795	
1737121246615	-0.008544922	
1737121246616	-0.004272461	
1737121246617	0.005722046	
1737121246618	0.01411438	
1737121246619	0.014038086	
1737121246620	0.008773804	
1737121246621	-0.0018310547	
1737121246622	0.0076293945	
1737121246623	0.0064086914	
1737121246624	-0.015182495	
1737121246625	-0.006866455	
1737121246626	9.918213E-4	
1737121246627	-0.0035095215	
1737121246628	-0.0025177002	
1737121246629	-0.0063323975	
1737121246630	-0.0063323975	
1737121246631	-5.340576E-4	
1737121246632	-3.0517578E-4	
1737121246633	6.1035156E-4	
1737121246634	-7.6293945E-4	
1737121246635	-4.5776367E-4	
1737121246636	0.003967285	
1737121246637	0.0025939941	
1737121246638	0.0032043457	
1737121246639	0.0059509277	
1737121246640	0.0019073486	
1737121246641	-0.0075531006	
1737121246642	-0.010604858	
1737121246643	-0.0012969971	
1737121246644	9.1552734E-4	
1737121246645	-1.5258789E-4	
1737121246646	-8.392334E-4	
1737121246647	9.918213E-4	
1737121246648	0.0060272217	
1737121246649	0.004043579	
1737121246650	0.0031280518	
1737121246651	0.0051116943	
1737121246652	0.0064849854	
1737121246653	0.008773804	
1737121246654	-0.004119873	
1737121246655	-0.0062561035	
1737121246656	7.6293945E-5	
1737121246657	-0.0032043457	
1737121246658	0.0034332275	
1737121246659	0.0016021729	
1737121246660	1.5258789E-4	
1737121246661	-0.0051879883	
1737121246662	-0.00541687	
1737121246663	0.002822876	
1737121246664	-0.0059509277	
1737121246665	-0.007019043	
1737121246666	-0.002670288	
1737121246667	-1.5258789E-4	
1737121246668	-0.001373291	
1737121246669	-0.0010681152	
1737121246670	-9.918213E-4	
1737121246671	-0.0034332275	
1737121246672	0.0048828125	
1737121246673	0.003967285	
1737121246674	-0.0016784668	
1737121246675	0.0037384033	
1737121246676	0.0022125244	
1737121246677	9.918213E-4	
1737121246678	5.340576E-4	
1737121246679	-0.002746582	
1737121246680	-0.003967285	
1737121246681	-0.008163452	
1737121246682	-0.01335144	
1737121246683	0.0048828125	
1737121246684	0.011672974	
1737121246685	-0.0062561035	
1737121246686	9.1552734E-4	
1737121246687	0.0046539307	
1737121246688	0.0016021729	
1737121246689	0.009613037	
1737121246690	0.0046539307	
1737121246691	0.0022125244	
1737121246692	0.0024414062	
1737121246693	-0.0031280518	
1737121246694	-0.0016021729	
1737121246695	-0.0074005127	
1737121246696	-0.009994507	
1737121246697	-0.0029754639	
1737121246698	2.2888184E-4	
1737121246699	3.8146973E-4	
1737121246700	-3.0517578E-4	
1737121246701	-0.002670288	
1737121246702	0.0022125244	
1737121246703	0.0012969971	
1737121246704	0.0035858154	
1737121246705	0.0064849854	
1737121246706	-1.5258789E-4	
1737121246707	0.004272461	
1737121246708	1.5258789E-4	
1737121246709	-0.0048828125	
1737121246710	-3.0517578E-4	
1737121246711	-0.0032043457	
1737121246712	-0.001373291	
1737121246713	0.0032806396	
1737121246714	0.008468628	
1737121246715	0.016174316	
1737121246716	0.011520386	
1737121246717	0.001373291	
1737121246718	-0.009841919	
1737121246719	-0.014724731	
1737121246720	-0.0074768066	
1737121246721	-0.0035858154	
1737121246722	-0.007019043	
1737121246723	-0.004196167	
1737121246724	4.5776367E-4	
1737121246725	-0.00289917	
1737121246726	-0.007247925	
1737121246727	-0.0045776367	
1737121246728	-0.002822876	
1737121246729	-0.001449585	
1737121246730	0.002746582	
1737121246731	0.0049591064	
1737121246732	6.1035156E-4	
1737121246733	4.5776367E-4	
1737121246734	0.008239746	
1737121246735	0.0061035156	
1737121246736	-0.0022125244	
1737121246737	7.6293945E-5	
1737121246738	0.0075531006	
1737121246739	0.007247925	
1737121246740	0.0035858154	
1737121246741	0.0038909912	
1737121246742	-0.0018310547	
1737121246743	-0.009689331	
1737121246744	-0.014190674	
1737121246745	-0.015182495	
1737121246746	-0.010910034	
1737121246747	-0.004196167	
1737121246748	0.005264282	
1737121246749	0.017471313	
1737121246750	0.016937256	
1737121246751	0.004043579	
1737121246752	-0.0019073486	
1737121246753	-0.004043579	
1737121246754	-0.001373291	
1737121246755	0.0047302246	
1737121246756	0.0074768066	
1737121246757	0.005264282	
1737121246758	0.001449585	
1737121246759	-6.866455E-4	
1737121246760	-0.0060272217	
1737121246761	-0.0047302246	
1737121246762	-0.00579834	
1737121246763	-0.012893677	
1737121246764	-0.012435913	
1737121246765	-0.0030517578	
1737121246766	0.004196167	
1737121246767	-0.0031280518	
1737121246768	-0.0090789795	
1737121246769	-0.005264282	
1737121246770	0.001449585	
1737121246771	0.0016021729	
1737121246772	0.004119873	
1737121246773	0.014572144	
1737121246774	0.008926392	
1737121246775	0.0060272217	
1737121246776	0.0119018555	
1737121246777	0.00831604	
1737121246778	0.012130737	
1737121246779	0.007171631	
1737121246780	-0.011062622	
1737121246781	-0.009918213	
1737121246782	-0.0036621094	
1737121246783	-0.0048065186	
1737121246784	-0.0050354004	
1737121246785	-0.006713867	
1737121246786	-0.008163452	
1737121246787	-0.008468628	
1737121246788	-0.008010864	
1737121246789	-0.010528564	
1737121246790	-0.004348755	
1737121246791	0.004501343	
1737121246792	0.007095337	
1737121246793	0.011291504	
1737121246794	0.012283325	
1737121246795	0.016403198	
1737121246796	0.012741089	
1737121246797	-0.0074768066	
1737121246798	-0.03036499	
1737121246799	-0.018615723	
1737121246800	0.00579834	
1737121246801	0.0030517578	
1737121246802	0.005645752	
1737121246803	0.0018310547	
1737121246804	-6.866455E-4	
1737121246805	-0.011520386	
1737121246806	-0.0038909912	
1737121246807	0.021209717	
1737121246808	0.0031280518	
1737121246809	-0.0022125244	
1737121246810	0.0025939941	
1737121246811	-0.0025177002	
1737121246812	0.0037384033	
1737121246813	-3.8146973E-4	
1737121246814	0.0066375732	
1737121246815	0.0065612793	
1737121246816	1.5258789E-4	
1737121246817	6.866455E-4	
1737121246818	-0.007858276	
1737121246819	-0.0012207031	
1737121246820	0.0034332275	
1737121246821	-0.005264282	
1737121246822	-0.0046539307	
1737121246823	-0.004501343	
1737121246824	-0.0022888184	
1737121246825	0.0049591064	
1737121246826	-0.0019073486	
1737121246827	-0.008544922	
1737121246828	0.0024414062	
1737121246829	0.0012969971	
1737121246830	-0.0017547607	
1737121246831	-0.004196167	
1737121246832	-0.004348755	
1737121246833	0.004501343	
1737121246834	0.0030517578	
1737121246835	-0.0034332275	
1737121246836	-0.006866455	
1737121246837	0.001373291	
1737121246838	-0.002822876	
1737121246839	-0.0045776367	
1737121246840	0.016098022	
1737121246841	0.006866455	
1737121246842	-6.1035156E-4	
1737121246843	0.01159668	
1737121246844	0.0011444092	
1737121246845	-0.008392334	
1737121246846	-0.010070801	
1737121246847	-0.008850098	
1737121246848	-0.0022125244	
1737121246849	9.918213E-4	
1737121246850	-0.0029754639	
1737121246851	-0.0048828125	
1737121246852	-0.007019043	
1737121246853	-0.008926392	
1737121246854	-0.0018310547	
1737121246855	0.0045776367	
1737121246856	0.01777649	
1737121246857	0.030212402	
1737121246858	0.013885498	
1737121246859	-9.1552734E-4	
1737121246860	0.009613037	
1737121246861	0.007095337	
1737121246862	-0.009002686	
1737121246863	-0.0061798096	
1737121246864	-0.0064849854	
1737121246865	-0.013504028	
1737121246866	-0.0119018555	
1737121246867	-0.009613037	
1737121246868	-0.0037384033	
1737121246869	0.0030517578	
1737121246870	-6.866455E-4	
1737121246871	0.0038909912	
1737121246872	0.005340576	
1737121246873	-0.004119873	
1737121246874	-0.0062561035	
1737121246875	-0.00541687	
1737121246876	7.6293945E-5	
1737121246877	0.0031280518	
1737121246878	0.0029754639	
1737121246879	-0.0010681152	
1737121246880	-0.00289917	
1737121246881	-0.0015258789	
1737121246882	-0.0023651123	
1737121246883	-0.0012207031	
1737121246884	-0.0047302246	
1737121246885	-0.0016784668	
1737121246886	6.1035156E-4	
1737121246887	6.1035156E-4	
1737121246888	0.006942749	
1737121246889	0.0046539307	
1737121246890	0.004348755	
1737121246891	0.0075531006	
1737121246892	0.005493164	
1737121246893	0.0012969971	
1737121246894	-0.0016784668	
1737121246895	0.0018310547	
1737121246896	1.5258789E-4	
1737121246897	0.006866455	
1737121246898	0.007858276	
1737121246899	-0.006713867	
1737121246900	-0.0073242188	
1737121246901	-0.007019043	
1737121246902	-0.009765625	
1737121246903	-0.007171631	
1737121246904	-0.0025177002	
1737121246905	-0.0025939941	
1737121246906	-0.005264282	
1737121246907	0.00289917	
1737121246908	0.005340576	
1737121246909	0.001449585	
1737121246910	-0.0025939941	
1737121246911	-0.0073242188	
1737121246912	-0.004272461	
1737121246913	0.005569458	
1737121246914	0.004425049	
1737121246915	0.0059509277	
1737121246916	0.016403198	
1737121246917	0.008392334	
1737121246918	-0.0012969971	
1737121246919	0.0029754639	
1737121246920	5.340576E-4	
1737121246921	-0.0021362305	
1737121246922	-0.0031280518	
1737121246923	-0.004119873	
1737121246924	4.5776367E-4	
1737121246925	-0.00579834	
1737121246926	-0.009460449	
1737121246927	-0.0074005127	
1737121246928	-0.0065612793	
1737121246929	-0.0045776367	
1737121246930	0.0020599365	
1737121246931	0.009613037	
1737121246932	0.012359619	
1737121246933	0.0025177002	
1737121246934	-0.01159668	
1737121246935	-0.013504028	
1737121246936	-0.0024414062	
1737121246937	0.004272461	
1737121246938	-8.392334E-4	
1737121246939	-0.0025939941	
1737121246940	-3.8146973E-4	
1737121246941	-9.1552734E-4	
1737121246942	0.0035858154	
1737121246943	0.0021362305	
1737121246944	0.004196167	
1737121246945	0.007019043	
1737121246946	0.0021362305	
1737121246947	0.0066375732	
1737121246948	0.0035095215	
1737121246949	-0.005264282	
1737121246950	-7.6293945E-5	
1737121246951	-0.0051879883	
1737121246952	-0.004119873	
1737121246953	0.0061035156	
1737121246954	-3.8146973E-4	
1737121246955	-9.1552734E-4	
1737121246956	-3.8146973E-4	
1737121246957	-0.008087158	
1737121246958	-0.007095337	
1737121246959	-0.010910034	
1737121246960	-0.006942749	
1737121246961	0.007095337	
1737121246962	0.0022125244	
1737121246963	-0.002670288	
1737121246964	-0.0011444092	
1737121246965	0.0021362305	
1737121246966	0.0074768066	
1737121246967	0.003967285	
1737121246968	0.0	
1737121246969	-0.0015258789	
1737121246970	0.0011444092	
1737121246971	0.0065612793	
1737121246972	0.009689331	
1737121246973	0.006713867	
1737121246974	0.0025939941	
1737121246975	0.0025939941	
1737121246976	-4.5776367E-4	
1737121246977	-0.0023651123	
1737121246978	0.0047302246	
1737121246979	3.0517578E-4	
1737121246980	-0.00579834	
1737121246981	-0.004043579	
1737121246982	-0.005874634	
1737121246983	-0.0059509277	
1737121246984	-0.008163452	
1737121246985	-0.0047302246	
1737121246986	-0.0031280518	
1737121246987	-0.005340576	
1737121246988	-0.0061035156	
1737121246989	-0.0038146973	
1737121246990	-0.001449585	
1737121246991	-3.8146973E-4	
1737121246992	0.0032806396	
1737121246993	7.6293945E-5	
1737121246994	-0.0015258789	
1737121246995	0.010299683	
1737121246996	0.008621216	
1737121246997	0.004119873	
1737121246998	0.005645752	
1737121246999	0.0019073486	
1737121247000	-7.6293945E-5	
1737121247001	-0.0035858154	
1737121247002	-0.010528564	
1737121247003	-0.008087158	
1737121247004	0.0011444092	
1737121247005	0.0059509277	
1737121247006	0.002822876	
1737121247007	-7.6293945E-4	
1737121247008	-0.0033569336	
1737121247009	-0.008010864	
1737121247010	0.0016021729	
1737121247011	0.004043579	
1737121247012	-0.0074768066	
1737121247013	-0.0022125244	
1737121247014	0.005340576	
1737121247015	0.007095337	
1737121247016	0.019302368	
1737121247017	0.019073486	
1737121247018	0.001373291	
1737121247019	-0.004196167	
1737121247020	-0.007247925	
1737121247021	-0.008468628	
1737121247022	-0.0020599365	
1737121247023	-0.004196167	
1737121247024	-0.0065612793	
1737121247025	-2.2888184E-4	
1737121247026	-1.5258789E-4	
1737121247027	-0.0020599365	
1737121247028	-0.0012207031	
1737121247029	-0.005874634	
1737121247030	-0.005722046	
1737121247031	9.1552734E-4	
1737121247032	-0.005264282	
1737121247033	-0.008621216	
1737121247034	-0.0031280518	
1737121247035	-0.0047302246	
1737121247036	-0.005264282	
1737121247037	1.5258789E-4	
1737121247038	0.0031280518	
1737121247039	0.007171631	
1737121247040	0.007858276	
1737121247041	0.008087158	
1737121247042	0.003967285	
1737121247043	-0.0036621094	
1737121247044	-0.0016021729	
1737121247045	-0.0034332275	
1737121247046	-0.0035095215	
1737121247047	-0.0023651123	
1737121247048	-0.0032043457	
1737121247049	0.0063323975	
1737121247050	0.007019043	
1737121247051	0.0030517578	
1737121247052	0.0016021729	
1737121247053	0.0015258789	
1737121247054	0.002746582	
1737121247055	-9.918213E-4	
1737121247056	0.002822876	
1737121247057	0.0011444092	
1737121247058	-0.0024414062	
1737121247059	-0.0011444092	
1737121247060	-3.0517578E-4	
1737121247061	-9.1552734E-4	
1737121247062	-0.002822876	
1737121247063	-0.011062622	
1737121247064	-0.009384155	
1737121247065	-0.0077056885	
1737121247066	-0.010681152	
1737121247067	0.005493164	
1737121247068	0.018692017	
1737121247069	0.005340576	
1737121247070	-1.5258789E-4	
1737121247071	0.011138916	
1737121247072	0.013656616	
1737121247073	0.007858276	
1737121247074	7.6293945E-5	
1737121247075	-4.5776367E-4	
1737121247076	-0.0012969971	
1737121247077	-0.0022125244	
1737121247078	-0.0075531006	
1737121247079	-0.010147095	
1737121247080	-3.8146973E-4	
1737121247081	-0.0012969971	
1737121247082	-0.003967285	
1737121247083	-0.0076293945	
1737121247084	-0.0016021729	
1737121247085	0.0016021729	
1737121247086	-0.012207031	
1737121247087	-0.010070801	
1737121247088	-0.012359619	
1737121247089	-0.010604858	
1737121247090	0.004196167	
1737121247091	0.0051116943	
1737121247092	-7.6293945E-5	
1737121247093	0.00541687	
1737121247094	0.0029754639	
1737121247095	0.0025177002	
1737121247096	0.009155273	
1737121247097	0.005264282	
1737121247098	-0.001373291	
1737121247099	0.001449585	
1737121247100	0.009994507	
1737121247101	1.5258789E-4	
1737121247102	0.0021362305	
1737121247103	0.002670288	
1737121247104	-0.00579834	
1737121247105	-0.004196167	
1737121247106	-0.0021362305	
1737121247107	-4.5776367E-4	
1737121247108	-7.6293945E-4	
1737121247109	0.0059509277	
1737121247110	0.0038146973	
1737121247111	-0.00579834	
1737121247112	0.00541687	
1737121247113	0.0062561035	
1737121247114	0.001449585	
1737121247115	-0.0035858154	
1737121247116	-0.0064086914	
1737121247117	-0.0032806396	
1737121247118	9.918213E-4	
1737121247119	-8.392334E-4	
1737121247120	-0.0059509277	
1737121247121	0.0	
1737121247122	-3.8146973E-4	
1737121247123	-0.0010681152	
1737121247124	-0.009841919	
1737121247125	-0.010223389	
1737121247126	0.0073242188	
1737121247127	0.0016784668	
1737121247128	-0.0038146973	
1737121247129	0.0062561035	
1737121247130	3.0517578E-4	
1737121247131	-0.0018310547	
1737121247132	-0.0016021729	
1737121247133	0.0032806396	
1737121247134	0.014343262	
1737121247135	0.0051116943	
1737121247136	1.5258789E-4	
1737121247137	0.0049591064	
1737121247138	-0.0030517578	
1737121247139	-0.0025177002	
1737121247140	9.918213E-4	
1737121247141	-0.005722046	
1737121247142	-0.006942749	
1737121247143	-0.009460449	
1737121247144	-0.0061798096	
1737121247145	-0.004501343	
1737121247146	-0.011444092	
1737121247147	0.002670288	
1737121247148	0.007019043	
1737121247149	-0.0010681152	
1737121247150	0.0045776367	
1737121247151	0.0016784668	
1737121247152	0.0061035156	
1737121247153	0.005722046	
1737121247154	-0.009765625	
1737121247155	-0.015182495	
1737121247156	-0.010070801	
1737121247157	0.004196167	
1737121247158	0.010223389	
1737121247159	0.022735596	
1737121247160	0.02243042	
1737121247161	-4.5776367E-4	
1737121247162	0.0019073486	
1737121247163	0.0012969971	
1737121247164	-0.0035095215	
1737121247165	-9.1552734E-4	
1737121247166	-0.015258789	
1737121247167	-0.016937256	
1737121247168	-0.010299683	
1737121247169	-0.0019073486	
1737121247170	0.001373291	
1737121247171	0.0049591064	
1737121247172	0.006713867	
1737121247173	-0.008010864	
1737121247174	0.005874634	
1737121247175	0.0048828125	
1737121247176	-0.0019836426	
1737121247177	0.006866455	
1737121247178	-0.002822876	
1737121247179	-0.0021362305	
1737121247180	-5.340576E-4	
1737121247181	-0.005645752	
1737121247182	-0.007095337	
1737121247183	-0.0077819824	
1737121247184	-6.1035156E-4	
1737121247185	-0.0035858154	
1737121247186	-0.0032806396	
1737121247187	-0.004119873	
1737121247188	-0.008468628	
1737121247189	0.002822876	
1737121247190	0.00541687	
1737121247191	-8.392334E-4	
1737121247192	-4.5776367E-4	
1737121247193	0.013809204	
1737121247194	0.010986328	
1737121247195	3.0517578E-4	
1737121247196	0.011444092	
1737121247197	0.012130737	
1737121247198	0.0060272217	
1737121247199	0.008239746	
1737121247200	0.0035095215	
1737121247201	-0.0015258789	
1737121247202	-0.005722046	
1737121247203	-0.005493164	
1737121247204	-0.008468628	
1737121247205	-0.008926392	
1737121247206	-0.0036621094	
1737121247207	-0.0038146973	
1737121247208	-0.00541687	
1737121247209	0.004196167	
1737121247210	0.0016021729	
1737121247211	-0.0090789795	
1737121247212	-7.6293945E-5	
1737121247213	-0.002670288	
1737121247214	-0.0025939941	
1737121247215	-5.340576E-4	
1737121247216	-0.007858276	
1737121247217	-0.0047302246	
1737121247218	-0.0063323975	
1737121247219	-0.0051879883	
1737121247220	-0.002822876	
1737121247221	8.392334E-4	
1737121247222	0.004196167	
1737121247223	-0.0029754639	
1737121247224	-0.0060272217	
1737121247225	6.866455E-4	
1737121247226	0.0037384033	
1737121247227	0.0031280518	
1737121247228	0.0011444092	
1737121247229	6.866455E-4	
1737121247230	0.0062561035	
1737121247231	0.007095337	
1737121247232	0.009002686	
1737121247233	0.005264282	
1737121247234	0.0	
1737121247235	-0.0046539307	
1737121247236	0.005874634	
1737121247237	0.012969971	
1737121247238	0.004348755	
1737121247239	-0.004425049	
1737121247240	-0.002746582	
1737121247241	-0.0019836426	
1737121247242	-0.009536743	
1737121247243	-0.010223389	
1737121247244	-0.014724731	
1737121247245	-0.008239746	
1737121247246	-0.0011444092	
1737121247247	-0.0037384033	
1737121247248	0.011062622	
1737121247249	0.027160645	
1737121247250	0.013504028	
1737121247251	-0.003967285	
1737121247252	0.0060272217	
1737121247253	0.002822876	
1737121247254	-0.001373291	
1737121247255	-0.0047302246	
1737121247256	-0.011672974	
1737121247257	-0.0074768066	
1737121247258	-0.0060272217	
1737121247259	-0.004348755	
1737121247260	-0.006942749	
1737121247261	-0.009841919	
1737121247262	0.0023651123	
1737121247263	0.0032806396	
1737121247264	-0.0025939941	
1737121247265	-0.002670288	
1737121247266	-0.007247925	
1737121247267	-0.0051116943	
1737121247268	0.007019043	
1737121247269	0.0050354004	
1737121247270	-0.0051116943	
1737121247271	-0.0016021729	
1737121247272	-9.1552734E-4	
1737121247273	-0.0017547607	
1737121247274	0.011062622	
1737121247275	0.01159668	
1737121247276	0.011749268	
1737121247277	0.0047302246	
1737121247278	-0.0051116943	
1737121247279	0.001449585	
1737121247280	-0.0035858154	
1737121247281	-0.012969971	
1737121247282	-0.009460449	
1737121247283	0.0061035156	
1737121247284	-0.0012969971	
1737121247285	-0.002670288	
1737121247286	5.340576E-4	
1737121247287	-0.0048065186	
1737121247288	0.0016021729	
1737121247289	0.0034332275	
1737121247290	0.004119873	
1737121247291	-8.392334E-4	
1737121247292	-0.009384155	
1737121247293	0.002822876	
1737121247294	0.0051879883	
1737121247295	0.0012207031	
1737121247296	0.005874634	
1737121247297	7.6293945E-5	
1737121247298	0.0066375732	
1737121247299	-9.918213E-4	
1737121247300	-0.0046539307	
1737121247301	-0.003967285	
1737121247302	-0.0035095215	
1737121247303	-0.0023651123	
1737121247304	-0.005569458	
1737121247305	-6.1035156E-4	
1737121247306	-3.8146973E-4	
1737121247307	-0.0012207031	
1737121247308	-0.009155273	
1737121247309	-0.007171631	
1737121247310	0.002670288	
1737121247311	0.0032043457	
1737121247312	0.013809204	
1737121247313	0.011062622	
1737121247314	3.0517578E-4	
1737121247315	6.1035156E-4	
1737121247316	0.00541687	
1737121247317	4.5776367E-4	
1737121247318	-0.002670288	
1737121247319	0.0059509277	
1737121247320	-0.0064086914	
1737121247321	-0.00831604	
1737121247322	-0.0059509277	
1737121247323	-0.008239746	
1737121247324	-0.01121521	
1737121247325	-0.012588501	
1737121247326	-0.0046539307	
1737121247327	0.002670288	
1737121247328	-9.1552734E-4	
1737121247329	0.0075531006	
1737121247330	0.012664795	
1737121247331	-0.004272461	
1737121247332	0.0036621094	
1737121247333	0.0031280518	
1737121247334	-6.1035156E-4	
1737121247335	0.0035095215	
1737121247336	-2.2888184E-4	
1737121247337	0.008239746	
1737121247338	0.0037384033	
1737121247339	-0.007019043	
1737121247340	3.8146973E-4	
1737121247341	0.0062561035	
1737121247342	0.002822876	
1737121247343	-0.0059509277	
1737121247344	-0.0032806396	
1737121247345	-0.0061798096	
1737121247346	-0.0030517578	
1737121247347	0.0023651123	
1737121247348	-0.0048065186	
1737121247349	-0.008010864	
1737121247350	-0.00289917	
1737121247351	-6.866455E-4	
1737121247352	0.0022888184	
1737121247353	0.012054443	
1737121247354	0.0019073486	
1737121247355	-0.0050354004	
1737121247356	-0.002670288	
1737121247357	-0.010910034	
1737121247358	-0.0021362305	
1737121247359	0.010375977	
1737121247360	0.018081665	
1737121247361	0.015792847	
1737121247362	0.0033569336	
1737121247363	-0.00541687	
1737121247364	-0.012664795	
1737121247365	-0.010910034	
1737121247366	9.918213E-4	
1737121247367	-0.009231567	
1737121247368	-0.0064849854	
1737121247369	-0.001449585	
1737121247370	-0.012512207	
1737121247371	-0.009231567	
1737121247372	0.0033569336	
1737121247373	0.011444092	
1737121247374	0.0062561035	
1737121247375	0.0038909912	
1737121247376	0.009689331	
1737121247377	-0.0011444092	
1737121247378	-0.005645752	
1737121247379	-0.0032806396	
1737121247380	0.0023651123	
1737121247381	3.0517578E-4	
1737121247382	-0.0050354004	
1737121247383	0.0023651123	
1737121247384	-0.0049591064	
1737121247385	0.0012969971	
1737121247386	0.008087158	
1737121247387	0.0061035156	
1737121247388	0.0037384033	
1737121247389	-0.0045776367	
1737121247390	-0.00793457	
1737121247391	-0.0077056885	
1737121247392	-6.1035156E-4	
1737121247393	-5.340576E-4	
1737121247394	-6.866455E-4	
1737121247395	0.0073242188	
1737121247396	0.0031280518	
1737121247397	-0.0017547607	
1737121247398	-9.1552734E-4	
1737121247399	-3.0517578E-4	
1737121247400	-0.0019836426	
1737121247401	-0.0064849854	
1737121247402	-0.0017547607	
1737121247403	-0.0049591064	
1737121247404	-0.0024414062	
1737121247405	-0.003967285	
1737121247406	-0.0073242188	
1737121247407	0.009002686	
1737121247408	0.008850098	
1737121247409	0.004272461	
1737121247410	0.007171631	
1737121247411	0.0019836426	
1737121247412	7.6293945E-5	
1737121247413	-7.6293945E-4	
1737121247414	0.003967285	
1737121247415	5.340576E-4	
1737121247416	-0.004043579	
1737121247417	0.0020599365	
1737121247418	-0.0016021729	
1737121247419	-0.009002686	
1737121247420	-0.015563965	
1737121247421	-0.008468628	
1737121247422	-0.00289917	
1737121247423	0.004196167	
1737121247424	0.0051879883	
1737121247425	0.0035095215	
1737121247426	0.0035858154	
1737121247427	6.1035156E-4	
1737121247428	0.0074005127	
1737121247429	0.007858276	
1737121247430	-0.002670288	
1737121247431	0.0	
1737121247432	-0.0017547607	
1737121247433	-0.0061798096	
1737121247434	-0.005493164	
1737121247435	-2.2888184E-4	
1737121247436	-0.0077819824	
1737121247437	-0.001449585	
1737121247438	0.0048065186	
1737121247439	-3.0517578E-4	
1737121247440	0.00289917	
1737121247441	0.002670288	
1737121247442	3.8146973E-4	
1737121247443	-0.0031280518	
1737121247444	-0.019073486	
1737121247445	-0.016021729	
1737121247446	0.0010681152	
1737121247447	0.0017547607	
1737121247448	9.1552734E-4	
1737121247449	0.005569458	
1737121247450	0.007019043	
1737121247451	0.009155273	
1737121247452	0.0048828125	
1737121247453	0.0019073486	
1737121247454	0.007171631	
1737121247455	0.004196167	
1737121247456	0.0	
1737121247457	-6.866455E-4	
1737121247458	-0.0034332275	
1737121247459	-0.011138916	
1737121247460	-0.0064086914	
1737121247461	0.011749268	
1737121247462	0.02281189	
1737121247463	0.008544922	
1737121247464	-0.008468628	
1737121247465	-0.0046539307	
1737121247466	-0.0051116943	
1737121247467	-0.0049591064	
1737121247468	0.0029754639	
1737121247469	-0.0019073486	
1737121247470	-0.0037384033	
1737121247471	-0.009307861	
1737121247472	-0.009613037	
1737121247473	0.0016784668	
1737121247474	-0.0051879883	
1737121247475	-0.0049591064	
1737121247476	-0.0064849854	
1737121247477	-0.007858276	
1737121247478	0.0059509277	
1737121247479	0.0038146973	
1737121247480	0.0033569336	
1737121247481	-0.0061035156	
1737121247482	-0.0077056885	
1737121247483	0.004272461	
1737121247484	0.004119873	
1737121247485	-3.0517578E-4	
1737121247486	8.392334E-4	
1737121247487	0.0035858154	
1737121247488	-0.005340576	
1737121247489	-0.00869751	
1737121247490	0.0011444092	
1737121247491	0.0064849854	
1737121247492	0.004501343	
1737121247493	0.0023651123	
1737121247494	6.866455E-4	
1737121247495	0.004501343	
1737121247496	0.015640259	
1737121247497	0.014877319	
1737121247498	3.0517578E-4	
1737121247499	-0.0066375732	
1737121247500	-0.0025939941	
1737121247501	-0.009613037	
1737121247502	-0.009231567	
1737121247503	0.0017547607	
1737121247504	-0.01121521	
1737121247505	-0.0046539307	
1737121247506	0.0046539307	
1737121247507	-0.0051879883	
1737121247508	-0.0019836426	
1737121247509	0.004425049	
1737121247510	-9.1552734E-4	
1737121247511	-0.009307861	
1737121247512	-0.009765625	
1737121247513	-0.0012969971	
1737121247514	0.0034332275	
1737121247515	0.016403198	
1737121247516	0.02166748	
1737121247517	0.011978149	
1737121247518	0.0049591064	
1737121247519	0.0022888184	
1737121247520	0.0059509277	
1737121247521	-0.0047302246	
1737121247522	-0.018234253	
1737121247523	-0.016937256	
1737121247524	-0.0073242188	
1737121247525	8.392334E-4	
1737121247526	-0.0017547607	
1737121247527	-0.006866455	
1737121247528	-0.0104522705	
1737121247529	-0.008773804	
1737121247530	-0.0037384033	
1737121247531	0.0023651123	
1737121247532	0.009536743	
1737121247533	2.2888184E-4	
1737121247534	-0.0019836426	
1737121247535	-0.004501343	
1737121247536	-0.0029754639	
1737121247537	0.0030517578	
1737121247538	-0.0022125244	
1737121247539	-0.0061798096	
1737121247540	-0.0011444092	
1737121247541	-0.0050354004	
1737121247542	0.010223389	
1737121247543	0.01586914	
1737121247544	0.01335144	
1737121247545	0.010223389	
1737121247546	-0.0061035156	
1737121247547	-0.0119018555	
1737121247548	-0.012359619	
1737121247549	-0.0047302246	
1737121247550	-0.0077819824	
1737121247551	0.0036621094	
1737121247552	0.021057129	
1737121247553	0.021896362	
1737121247554	0.025024414	
1737121247555	0.0063323975	
1737121247556	-0.0025177002	
1737121247557	-0.0045776367	
1737121247558	-0.011062622	
1737121247559	-0.0025939941	
1737121247560	-0.012969971	
1737121247561	-0.015182495	
1737121247562	-0.008239746	
1737121247563	-0.015563965	
1737121247564	-0.01159668	
1737121247565	-0.010299683	
1737121247566	-0.00541687	
1737121247567	-0.001449585	
1737121247568	-0.0019836426	
1737121247569	0.0025177002	
1737121247570	0.005874634	
1737121247571	0.0064849854	
1737121247572	0.0035858154	
1737121247573	0.0011444092	
1737121247574	-0.0023651123	
1737121247575	0.004348755	
1737121247576	0.0025939941	
1737121247577	7.6293945E-4	
1737121247578	0.0016784668	
1737121247579	0.0066375732	
1737121247580	0.0063323975	
1737121247581	0.004348755	
1737121247582	3.8146973E-4	
1737121247583	-0.006713867	
1737121247584	-0.00793457	
1737121247585	-0.0062561035	
1737121247586	0.004272461	
1737121247587	0.0031280518	
1737121247588	0.0077819824	
1737121247589	0.0061035156	
1737121247590	0.0016784668	
1737121247591	0.0010681152	
1737121247592	-0.0075531006	
1737121247593	-0.0019836426	
1737121247594	3.8146973E-4	
1737121247595	0.0022888184	
1737121247596	0.004043579	
1737121247597	0.001449585	
1737121247598	-0.004425049	
1737121247599	-0.010681152	
1737121247600	-0.0024414062	
1737121247601	-0.0011444092	
1737121247602	-0.009460449	
1737121247603	-0.009613037	
1737121247604	0.0035095215	
1737121247605	0.0032806396	
1737121247606	-0.0029754639	
1737121247607	7.6293945E-4	
1737121247608	-0.007095337	
1737121247609	-0.011367798	
1737121247610	-0.008773804	
1737121247611	-0.011444092	
1737121247612	0.008087158	
1737121247613	0.013809204	
1737121247614	0.0064849854	
1737121247615	0.008850098	
1737121247616	0.011749268	
1737121247617	0.0038909912	
1737121247618	0.0030517578	
1737121247619	0.0035858154	
1737121247620	0.001449585	
1737121247621	7.6293945E-4	
1737121247622	-0.0016021729	
1737121247623	-0.001449585	
1737121247624	-0.0036621094	
1737121247625	-0.0061798096	
1737121247626	-0.004272461	
1737121247627	0.0010681152	
1737121247628	-0.014419556	
1737121247629	-0.0062561035	
1737121247630	0.001449585	
1737121247631	9.1552734E-4	
1737121247632	-0.0020599365	
1737121247633	-0.0064849854	
1737121247634	0.0076293945	
1737121247635	0.0018310547	
1737121247636	0.0016021729	
1737121247637	0.001373291	
1737121247638	-0.0033569336	
1737121247639	-3.0517578E-4	
1737121247640	-0.0046539307	
1737121247641	-0.0023651123	
1737121247642	-6.866455E-4	
1737121247643	-0.0037384033	
1737121247644	0.0035858154	
1737121247645	-9.918213E-4	
1737121247646	-0.0063323975	
1737121247647	7.6293945E-5	
1737121247648	-0.004348755	
1737121247649	0.0022125244	
1737121247650	0.005569458	
1737121247651	0.005874634	
1737121247652	0.010910034	
1737121247653	0.0020599365	
1737121247654	1.5258789E-4	
1737121247655	6.1035156E-4	
1737121247656	0.0015258789	
1737121247657	-0.0029754639	
1737121247658	-0.006713867	
1737121247659	0.0046539307	
1737121247660	0.00793457	
1737121247661	-0.009307861	
1737121247662	-0.008926392	
1737121247663	-0.0034332275	
1737121247664	-0.010986328	
1737121247665	-0.011672974	
1737121247666	-0.008621216	
1737121247667	-0.0046539307	
1737121247668	-0.0019073486	
1737121247669	0.014266968	
1737121247670	0.025863647	
1737121247671	0.01586914	
1737121247672	0.0065612793	
1737121247673	0.0048065186	
1737121247674	-0.008392334	
1737121247675	-0.012054443	
1737121247676	-0.00869751	
1737121247677	-1.5258789E-4	
1737121247678	0.0050354004	
1737121247679	9.1552734E-4	
1737121247680	0.010147095	
1737121247681	-0.0010681152	
1737121247682	-0.004348755	
1737121247683	2.2888184E-4	
1737121247684	-0.004196167	
1737121247685	-0.0021362305	
1737121247686	-0.017623901	
1737121247687	-0.011291504	
1737121247688	-0.010986328	
1737121247689	-0.016860962	
1737121247690	-0.0019836426	
1737121247691	0.0051116943	
1737121247692	-0.0012969971	
1737121247693	0.004348755	
1737121247694	0.013961792	
1737121247695	0.008087158	
1737121247696	0.013046265	
1737121247697	0.0066375732	
1737121247698	-7.6293945E-5	
1737121247699	-0.002746582	
1737121247700	-0.0063323975	
1737121247701	-0.004043579	
1737121247702	-0.0018310547	
1737121247703	8.392334E-4	
1737121247704	-0.0090789795	
1737121247705	-0.01449585	
1737121247706	-0.002746582	
1737121247707	0.0021362305	
1737121247708	7.6293945E-4	
1737121247709	0.0034332275	
1737121247710	0.005264282	
1737121247711	0.011062622	
1737121247712	-0.0038146973	
1737121247713	-0.0051116943	
1737121247714	-0.0010681152	
1737121247715	0.007171631	
1737121247716	0.011672974	
1737121247717	0.005264282	
1737121247718	0.012512207	
1737121247719	0.0038909912	
1737121247720	-0.0051116943	
1737121247721	-1.5258789E-4	
1737121247722	-0.013885498	
1737121247723	-0.013961792	
1737121247724	-0.001449585	
1737121247725	-0.0029754639	
1737121247726	-0.008468628	
1737121247727	-9.918213E-4	
1737121247728	0.0050354004	
1737121247729	-0.011672974	
1737121247730	-0.0017547607	
1737121247731	0.012588501	
1737121247732	4.5776367E-4	
1737121247733	0.002822876	
1737121247734	2.2888184E-4	
1737121247735	-0.0035095215	
1737121247736	0.0012207031	
1737121247737	2.2888184E-4	
1737121247738	0.0023651123	
1737121247739	0.001449585	
1737121247740	-0.004272461	
1737121247741	-0.013122559	
1737121247742	-0.011138916	
1737121247743	-5.340576E-4	
1737121247744	0.0037384033	
1737121247745	0.0049591064	
1737121247746	0.00289917	
1737121247747	-0.0059509277	
1737121247748	-0.007858276	
1737121247749	-0.0063323975	
1737121247750	-5.340576E-4	
1737121247751	0.0077819824	
1737121247752	0.0025939941	
1737121247753	0.00831604	
1737121247754	0.00579834	
1737121247755	-0.0017547607	
1737121247756	0.0024414062	
1737121247757	0.004043579	
1737121247758	7.6293945E-5	
1737121247759	-6.1035156E-4	
1737121247760	0.0076293945	
1737121247761	0.0046539307	
1737121247762	-1.5258789E-4	
1737121247763	-0.005493164	
1737121247764	-9.1552734E-4	
1737121247765	-0.009155273	
1737121247766	-0.00831604	
1737121247767	0.0017547607	
1737121247768	-0.008239746	
1737121247769	-0.004348755	
1737121247770	-0.0048828125	
1737121247771	-0.002670288	
1737121247772	0.0064086914	
1737121247773	-0.009155273	
1737121247774	-0.01701355	
1737121247775	-0.0090789795	
1737121247776	-0.0024414062	
1737121247777	0.013580322	
1737121247778	0.026016235	
1737121247779	0.02609253	
1737121247780	0.021591187	
1737121247781	2.2888184E-4	
1737121247782	-0.0046539307	
1737121247783	-0.003967285	
1737121247784	-0.009918213	
1737121247785	-0.010299683	
1737121247786	-0.018615723	
1737121247787	-0.012283325	
1737121247788	-4.5776367E-4	
1737121247789	-0.011062622	
1737121247790	0.0011444092	
1737121247791	-0.0063323975	
1737121247792	-0.0038146973	
1737121247793	0.008010864	
1737121247794	-0.010757446	
1737121247795	-0.011520386	
1737121247796	-0.006790161	
1737121247797	0.017089844	
1737121247798	0.012283325	
1737121247799	0.009155273	
1737121247800	0.014877319	
1737121247801	0.0019073486	
1737121247802	0.009002686	
1737121247803	0.007858276	
1737121247804	0.0022888184	
1737121247805	0.004501343	
1737121247806	9.1552734E-4	
1737121247807	-9.1552734E-4	
1737121247808	-0.00831604	
1737121247809	-0.020217896	
1737121247810	-0.016479492	
1737121247811	-0.012207031	
1737121247812	-0.0036621094	
1737121247813	0.0	
1737121247814	-0.0034332275	
1737121247815	-0.0077056885	
1737121247816	-0.002746582	
1737121247817	-0.0025177002	
1737121247818	-7.6293945E-5	
1737121247819	0.009918213	
1737121247820	0.011749268	
1737121247821	0.0132751465	
1737121247822	0.0012969971	
1737121247823	0.002670288	
1737121247824	0.0011444092	
1737121247825	0.005569458	
1737121247826	0.008544922	
1737121247827	-0.0019073486	
1737121247828	-0.0051879883	
1737121247829	-0.0016784668	
1737121247830	-0.0035858154	
1737121247831	-0.0038146973	
1737121247832	0.0022125244	
1737121247833	-0.0016784668	
1737121247834	-0.0035858154	
1737121247835	-0.009002686	
1737121247836	-0.005874634	
1737121247837	0.002670288	
1737121247838	0.0018310547	
1737121247839	-0.0032806396	
1737121247840	-0.008087158	
1737121247841	9.1552734E-4	
1737121247842	-0.012969971	
1737121247843	-0.012283325	
1737121247844	-0.0050354004	
1737121247845	0.001449585	
1737121247846	0.0065612793	
1737121247847	9.1552734E-4	
1737121247848	0.007019043	
1737121247849	0.0024414062	
1737121247850	0.002822876	
1737121247851	0.0015258789	
1737121247852	-0.0063323975	
1737121247853	0.0060272217	
1737121247854	0.0066375732	
1737121247855	0.004425049	
1737121247856	0.009994507	
1737121247857	0.011367798	
1737121247858	0.006866455	
1737121247859	-0.0045776367	
1737121247860	-0.0051879883	
1737121247861	-0.0024414062	
1737121247862	-0.0035095215	
1737121247863	-0.0034332275	
1737121247864	-0.006866455	
1737121247865	-0.0077819824	
1737121247866	-0.008544922	
1737121247867	-0.019378662	
1737121247868	-0.0077056885	
1737121247869	0.0074005127	
1737121247870	0.0030517578	
1737121247871	0.0018310547	
1737121247872	0.004272461	
1737121247873	0.0016784668	
1737121247874	0.0017547607	
1737121247875	0.0030517578	
1737121247876	0.004348755	
1737121247877	-0.0024414062	
1737121247878	-0.0034332275	
1737121247879	-8.392334E-4	
1737121247880	-0.0037384033	
1737121247881	0.001449585	
1737121247882	-0.009918213	
1737121247883	-0.016098022	
1737121247884	-0.002746582	
1737121247885	-0.004501343	
1737121247886	0.0035858154	
1737121247887	0.025253296	
1737121247888	0.02571106	
1737121247889	0.015792847	
1737121247890	0.0016784668	
1737121247891	-0.0019836426	
1737121247892	-0.007247925	
1737121247893	-0.01121521	
1737121247894	0.0025939941	
1737121247895	-0.005264282	
1737121247896	-0.0061798096	
1737121247897	-0.0045776367	
1737121247898	-0.008087158	
1737121247899	-0.012130737	
1737121247900	-0.020980835	
1737121247901	-0.005264282	
1737121247902	-0.008621216	
1737121247903	-0.009002686	
1737121247904	0.00289917	
1737121247905	0.0021362305	
1737121247906	0.009307861	
1737121247907	0.009994507	
1737121247908	0.0047302246	
1737121247909	0.0046539307	
1737121247910	-9.918213E-4	
1737121247911	0.0064086914	
1737121247912	0.008163452	
1737121247913	-0.0019836426	
1737121247914	0.006942749	
1737121247915	0.0012969971	
1737121247916	0.0047302246	
1737121247917	0.010528564	
1737121247918	-0.0025177002	
1737121247919	0.0037384033	
1737121247920	-0.0029754639	
1737121247921	-0.0074768066	
1737121247922	-0.011978149	
1737121247923	-0.015716553	
1737121247924	-0.0012969971	
1737121247925	0.0019836426	
1737121247926	-0.0012969971	
1737121247927	-0.0046539307	
1737121247928	0.00289917	
1737121247929	-9.1552734E-4	
1737121247930	-0.0051116943	
1737121247931	-0.0019836426	
1737121247932	0.0036621094	
1737121247933	0.002670288	
1737121247934	-0.0024414062	
1737121247935	0.002670288	
1737121247936	-6.866455E-4	
1737121247937	-0.0065612793	
1737121247938	-0.0035095215	
1737121247939	0.008850098	
1737121247940	0.01083374	
1737121247941	0.005264282	
1737121247942	0.0061798096	
1737121247943	-0.006866455	
1737121247944	-0.0077819824	
1737121247945	-0.0046539307	
1737121247946	-0.003967285	
1737121247947	1.5258789E-4	
1737121247948	-0.0119018555	
1737121247949	-0.012741089	
1737121247950	-0.011138916	
1737121247951	-4.5776367E-4	
1737121247952	-0.0017547607	
1737121247953	-0.0011444092	
1737121247954	0.0090789795	
1737121247955	0.008010864	
1737121247956	0.003967285	
1737121247957	0.009918213	
1737121247958	-0.0034332275	
1737121247959	0.005340576	
1737121247960	0.013198853	
1737121247961	-0.008544922	
1737121247962	8.392334E-4	
1737121247963	0.0015258789	
1737121247964	-0.0024414062	
1737121247965	-0.009994507	
1737121247966	-0.006713867	
1737121247967	0.015029907	
1737121247968	-7.6293945E-4	
1737121247969	-0.008163452	
1737121247970	0.00289917	
1737121247971	-0.0076293945	
1737121247972	-0.0035858154	
1737121247973	-0.0019836426	
1737121247974	-0.0016784668	
1737121247975	0.0019073486	
1737121247976	2.2888184E-4	
1737121247977	0.0016021729	
1737121247978	-0.0021362305	
1737121247979	-0.017166138	
1737121247980	-0.0118255615	
1737121247981	0.002822876	
1737121247982	0.0033569336	
1737121247983	0.013046265	
1737121247984	0.022583008	
1737121247985	-4.5776367E-4	
1737121247986	-0.0090789795	
1737121247987	-0.009460449	
1737121247988	-0.008544922	
1737121247989	1.5258789E-4	
1737121247990	0.005340576	
1737121247991	0.0073242188	
1737121247992	-0.0024414062	
1737121247993	-0.004425049	
1737121247994	0.007858276	
1737121247995	0.007858276	
1737121247996	-0.0038909912	
1737121247997	0.010681152	
1737121247998	0.002670288	
1737121247999	-0.005264282	
1737121248000	0.0019073486	
1737121248001	-0.013504028	
1737121248002	-0.0077056885	
1737121248003	-0.014572144	
1737121248004	-0.01739502	
1737121248005	-0.011520386	
1737121248006	-0.0050354004	
1737121248007	-6.866455E-4	
1737121248008	0.01373291	
1737121248009	0.018615723	
1737121248010	0.007247925	
1737121248011	0.0065612793	
1737121248012	0.00289917	
1737121248013	0.005264282	
1737121248014	0.005874634	
1737121248015	0.00541687	
1737121248016	2.2888184E-4	
1737121248017	-0.0025177002	
1737121248018	2.2888184E-4	
1737121248019	-6.866455E-4	
1737121248020	-0.0049591064	
1737121248021	-0.003967285	
1737121248022	-0.010299683	
1737121248023	-0.002746582	
1737121248024	-0.00579834	
1737121248025	-0.007171631	
1737121248026	-0.0060272217	
1737121248027	-0.013656616	
1737121248028	-0.008773804	
1737121248029	-0.005264282	
1737121248030	0.007171631	
1737121248031	0.004501343	
1737121248032	-0.0033569336	
1737121248033	-3.0517578E-4	
1737121248034	-0.004348755	
1737121248035	0.0033569336	
1737121248036	0.0046539307	
1737121248037	-0.0032043457	
1737121248038	0.012664795	
1737121248039	-7.6293945E-5	
1737121248040	0.0049591064	
1737121248041	0.0075531006	
1737121248042	-0.008621216	
1737121248043	0.0049591064	
1737121248044	0.0030517578	
1737121248045	-2.2888184E-4	
1737121248046	0.0060272217	
1737121248047	0.0016784668	
1737121248048	-0.0017547607	
1737121248049	-0.008926392	
1737121248050	-0.0012207031	
1737121248051	0.00541687	
1737121248052	0.007858276	
1737121248053	-3.0517578E-4	
1737121248054	7.6293945E-4	
1737121248055	-0.0022125244	
1737121248056	-0.004501343	
1737121248057	-0.0017547607	
1737121248058	-0.009231567	
1737121248059	-0.0022888184	
1737121248060	0.002670288	
1737121248061	-0.0019073486	
1737121248062	-0.0017547607	
1737121248063	-0.015411377	
1737121248064	-0.0062561035	
1737121248065	-0.0012207031	
1737121248066	-0.0032806396	
1737121248067	0.0029754639	
1737121248068	-7.6293945E-4	
1737121248069	0.0051116943	
1737121248070	0.005645752	
1737121248071	-7.6293945E-5	
1737121248072	0.0012969971	
1737121248073	-9.1552734E-4	
1737121248074	0.0012207031	
1737121248075	0.0090789795	
1737121248076	-0.0077056885	
1737121248077	-0.005493164	
1737121248078	0.0077056885	
1737121248079	-0.0060272217	
1737121248080	-0.0045776367	
1737121248081	-5.340576E-4	
1737121248082	-0.0037384033	
1737121248083	-0.012435913	
1737121248084	-0.0075531006	
1737121248085	-0.005493164	
1737121248086	0.0024414062	
1737121248087	0.009231567	
1737121248088	6.1035156E-4	
1737121248089	0.005874634	
1737121248090	0.013656616	
1737121248091	0.012588501	
1737121248092	0.0077056885	
1737121248093	0.0011444092	
1737121248094	-0.007858276	
1737121248095	-0.004272461	
1737121248096	-0.007019043	
1737121248097	-0.0016784668	
1737121248098	0.007019043	
1737121248099	-0.01121521	
1737121248100	-0.005264282	
1737121248101	-2.2888184E-4	
1737121248102	-0.01625061	
1737121248103	-7.6293945E-4	
1737121248104	0.0024414062	
1737121248105	-0.0025939941	
1737121248106	-0.012054443	
1737121248107	-0.010681152	
1737121248108	-0.0032806396	
1737121248109	-0.008926392	
1737121248110	-0.004501343	
1737121248111	0.016403198	
1737121248112	0.033721924	
1737121248113	0.024719238	
1737121248114	0.004196167	
1737121248115	0.004196167	
1737121248116	0.0030517578	
1737121248117	-0.011138916	
1737121248118	-0.003967285	
1737121248119	0.007858276	
1737121248120	-0.0025939941	
1737121248121	-0.0048828125	
1737121248122	-0.00869751	
1737121248123	-0.010757446	
1737121248124	-0.017166138	
1737121248125	-0.019683838	
1737121248126	-0.002746582	
1737121248127	0.004348755	
1737121248128	-0.00289917	
1737121248129	-0.011444092	
1737121248130	-0.0016784668	
1737121248131	-0.0029754639	
1737121248132	0.004043579	
1737121248133	0.0038146973	
1737121248134	0.0046539307	
1737121248135	0.01083374	
1737121248136	0.0021362305	
1737121248137	0.004425049	
1737121248138	0.002670288	
1737121248139	0.0	
1737121248140	0.0020599365	
1737121248141	0.0010681152	
1737121248142	9.1552734E-4	
1737121248143	5.340576E-4	
1737121248144	0.004348755	
1737121248145	-0.0015258789	
1737121248146	-5.340576E-4	
1737121248147	0.0022125244	
1737121248148	-0.0066375732	
1737121248149	-0.0020599365	
1737121248150	-0.0036621094	
1737121248151	-0.0025177002	
1737121248152	-0.002670288	
1737121248153	0.0036621094	
1737121248154	0.002822876	
1737121248155	-0.008010864	
1737121248156	0.0012207031	
1737121248157	0.002670288	
1737121248158	-0.002822876	
1737121248159	0.0035858154	
1737121248160	-4.5776367E-4	
1737121248161	-0.0012969971	
1737121248162	-0.01159668	
1737121248163	-0.006866455	
1737121248164	-0.0051116943	
1737121248165	-0.008010864	
1737121248166	-0.0048828125	
1737121248167	-7.6293945E-5	
1737121248168	-0.0059509277	
1737121248169	-6.1035156E-4	
1737121248170	0.014343262	
1737121248171	0.0025939941	
1737121248172	0.0063323975	
1737121248173	0.0011444092	
1737121248174	-0.004196167	
1737121248175	-0.0035095215	
1737121248176	6.1035156E-4	
1737121248177	0.018844604	
1737121248178	-0.00289917	
1737121248179	-0.00541687	
1737121248180	0.0066375732	
1737121248181	-0.012664795	
1737121248182	0.012207031	
1737121248183	0.013122559	
1737121248184	0.0034332275	
1737121248185	0.0036621094	
1737121248186	-0.010604858	
1737121248187	-0.0016784668	
1737121248188	0.0012207031	
1737121248189	-0.0061798096	
1737121248190	-0.0016021729	
1737121248191	-0.0029754639	
1737121248192	-0.012435913	
1737121248193	-0.002670288	
1737121248194	-7.6293945E-5	
1737121248195	-0.0049591064	
1737121248196	0.0019836426	
1737121248197	-0.009460449	
1737121248198	-0.010299683	
1737121248199	-0.0036621094	
1737121248200	0.0010681152	
1737121248201	0.0032043457	
1737121248202	-0.0022125244	
1737121248203	-0.0034332275	
1737121248204	-0.004425049	
1737121248205	-0.0017547607	
1737121248206	-0.0038146973	
1737121248207	0.002670288	
1737121248208	0.010375977	
1737121248209	-9.918213E-4	
1737121248210	0.004119873	
1737121248211	0.0020599365	
1737121248212	0.0019073486	
1737121248213	0.0037384033	
1737121248214	0.0038146973	
1737121248215	0.013504028	
1737121248216	0.0034332275	
1737121248217	0.0038909912	
1737121248218	0.001449585	
1737121248219	-0.007171631	
1737121248220	-0.00869751	
1737121248221	-0.008010864	
1737121248222	-0.008850098	
1737121248223	-0.0077056885	
1737121248224	-0.008239746	
1737121248225	-0.01449585	
1737121248226	-0.012207031	
1737121248227	-0.012359619	
1737121248228	0.0021362305	
1737121248229	0.023345947	
1737121248230	0.030136108	
1737121248231	0.021743774	
1737121248232	-0.0010681152	
1737121248233	-0.011138916	
1737121248234	-9.1552734E-4	
1737121248235	-0.0024414062	
1737121248236	0.009231567	
1737121248237	0.0119018555	
1737121248238	0.007019043	
1737121248239	3.8146973E-4	
1737121248240	-0.008010864	
1737121248241	-0.004501343	
1737121248242	-0.012435913	
1737121248243	-0.0075531006	
1737121248244	-0.0076293945	
1737121248245	-0.016784668	
1737121248246	-0.011978149	
1737121248247	-0.0051116943	
1737121248248	0.007247925	
1737121248249	0.0034332275	
1737121248250	-0.0061798096	
1737121248251	-0.0032043457	
1737121248252	-0.0038146973	
1737121248253	-0.002746582	
1737121248254	-0.005264282	
1737121248255	1.5258789E-4	
1737121248256	-0.005264282	
1737121248257	0.004119873	
1737121248258	0.0051116943	
1737121248259	-0.0046539307	
1737121248260	9.918213E-4	
1737121248261	0.0062561035	
1737121248262	0.009002686	
1737121248263	0.015258789	
1737121248264	0.004119873	
1737121248265	4.5776367E-4	
1737121248266	-0.002670288	
1737121248267	-0.009613037	
1737121248268	0.0022125244	
1737121248269	-0.003967285	
1737121248270	9.918213E-4	
1737121248271	0.0034332275	
1737121248272	0.0011444092	
1737121248273	0.015182495	
1737121248274	0.0059509277	
1737121248275	-4.5776367E-4	
1737121248276	0.006790161	
1737121248277	0.0017547607	
1737121248278	-0.013046265	
1737121248279	-0.015411377	
1737121248280	-0.0075531006	
1737121248281	-0.0048065186	
1737121248282	-0.015487671	
1737121248283	-0.011138916	
1737121248284	8.392334E-4	
1737121248285	-0.0025939941	
1737121248286	0.010681152	
1737121248287	0.0035858154	
1737121248288	-0.007247925	
1737121248289	-0.005493164	
1737121248290	0.002670288	
1737121248291	0.007171631	
1737121248292	-0.0046539307	
1737121248293	0.012512207	
1737121248294	0.003967285	
1737121248295	-0.008850098	
1737121248296	7.6293945E-4	
1737121248297	-0.0051116943	
1737121248298	0.006942749	
1737121248299	0.0061798096	
1737121248300	-0.0012207031	
1737121248301	-0.0033569336	
1737121248302	0.0017547607	
1737121248303	-0.012435913	
1737121248304	-0.0049591064	
1737121248305	0.0	
1737121248306	-0.00541687	
1737121248307	-0.0023651123	
1737121248308	-0.015029907	
1737121248309	-0.009918213	
1737121248310	0.004043579	
1737121248311	0.0025177002	
1737121248312	0.014801025	
1737121248313	0.023422241	
1737121248314	0.0064086914	
1737121248315	0.009841919	
1737121248316	0.0076293945	
1737121248317	-0.0023651123	
1737121248318	7.6293945E-4	
1737121248319	1.5258789E-4	
1737121248320	-0.0051879883	
1737121248321	-0.0104522705	
1737121248322	-0.015029907	
1737121248323	-0.012969971	
1737121248324	-0.0077056885	
1737121248325	0.007171631	
1737121248326	0.016326904	
1737121248327	0.004348755	
1737121248328	-0.009231567	
1737121248329	-0.014419556	
1737121248330	-0.001449585	
1737121248331	0.0025177002	
1737121248332	0.0032806396	
1737121248333	0.004348755	
1737121248334	3.0517578E-4	
1737121248335	0.005645752	
1737121248336	-0.005264282	
1737121248337	-0.0037384033	
1737121248338	-0.007095337	
1737121248339	-0.0064849854	
1737121248340	0.008163452	
1737121248341	-0.013427734	
1737121248342	-0.010070801	
1737121248343	0.002670288	
1737121248344	-0.004348755	
1737121248345	-0.009841919	
1737121248346	-0.0037384033	
1737121248347	-3.8146973E-4	
1737121248348	0.0074005127	
1737121248349	0.0010681152	
1737121248350	0.0033569336	
1737121248351	0.012741089	
1737121248352	0.006790161	
1737121248353	0.008392334	
1737121248354	0.0063323975	
1737121248355	0.004425049	
1737121248356	-0.0012969971	
1737121248357	3.8146973E-4	
1737121248358	0.0035858154	
1737121248359	0.007858276	
1737121248360	-0.0010681152	
1737121248361	-0.0030517578	
1737121248362	-0.0034332275	
1737121248363	-0.007858276	
1737121248364	-0.011749268	
1737121248365	-0.013656616	
1737121248366	-0.0020599365	
1737121248367	-6.1035156E-4	
1737121248368	-7.6293945E-5	
1737121248369	0.0024414062	
1737121248370	-0.009765625	
1737121248371	0.002670288	
1737121248372	0.005493164	
1737121248373	-3.0517578E-4	
1737121248374	-0.0032043457	
1737121248375	-0.0020599365	
1737121248376	-0.0023651123	
1737121248377	-0.007019043	
1737121248378	0.0	
1737121248379	0.0033569336	
1737121248380	0.009307861	
1737121248381	0.0035095215	
1737121248382	0.0010681152	
1737121248383	-3.0517578E-4	
1737121248384	-0.015792847	
1737121248385	-0.00541687	
1737121248386	-0.0033569336	
1737121248387	-0.0015258789	
1737121248388	0.00869751	
1737121248389	0.0019836426	
1737121248390	0.0063323975	
1737121248391	-0.004501343	
1737121248392	0.010375977	
1737121248393	0.0016784668	
1737121248394	-0.019760132	
1737121248395	-0.010223389	
1737121248396	-0.006713867	
1737121248397	-0.0012207031	
1737121248398	0.0066375732	
1737121248399	0.010070801	
1737121248400	0.010528564	
1737121248401	0.013961792	
1737121248402	0.00793457	
1737121248403	-0.0029754639	
1737121248404	-0.006866455	
