# OpenSignals Text File Format
# {"00:80:E1:26:A1:B0":{"sensor":["EMG"],"device name":"00:80:E1:26:A1:B0","column":["timestamp","EMG"],"sync interval":2,"time":"10:57:51","comments":"","keywords":"","device connection":"BLE00:80:E1:26:A1:B0","channels":[0],"date":"2025-02-13","mode":0,"digital IO":[],"firmware version":259,"device":"musclebanplux","position":0,"sampling rate":1000,"label":["EMG"],"resolution":[16],"special":[{}],"sleeve color":["UNKNOWN"]}}
# EndOfHeader
1739440672168	5.340576E-4	
1739440672169	-4.5776367E-4	
1739440672170	-0.0015258789	
1739440672171	0.002670288	
1739440672172	0.0015258789	
1739440672173	0.0048065186	
1739440672174	0.004196167	
1739440672175	-0.0119018555	
1739440672176	-0.0146484375	
1739440672177	0.0024414062	
1739440672178	6.866455E-4	
1739440672179	-0.011444092	
1739440672180	-0.0012207031	
1739440672181	0.0022888184	
1739440672182	-0.002670288	
1739440672183	0.0064849854	
1739440672184	0.009765625	
1739440672185	0.003967285	
1739440672186	0.0010681152	
1739440672187	0.004425049	
1739440672188	0.0015258789	
1739440672189	-0.0010681152	
1739440672190	0.0060272217	
1739440672191	-7.6293945E-5	
1739440672192	-0.006790161	
1739440672193	-0.005493164	
1739440672194	-0.0090789795	
1739440672195	-0.004425049	
1739440672196	0.0050354004	
1739440672197	0.008544922	
1739440672198	0.007095337	
1739440672199	0.004119873	
1739440672200	0.0074005127	
1739440672201	0.00579834	
1739440672202	-0.0010681152	
1739440672203	-0.005874634	
1739440672204	-0.010681152	
1739440672205	-0.005645752	
1739440672206	-0.0015258789	
1739440672207	-0.0038146973	
1739440672208	9.1552734E-4	
1739440672209	0.0031280518	
1739440672210	-0.012054443	
1739440672211	-0.011291504	
1739440672212	0.004196167	
1739440672213	-1.5258789E-4	
1739440672214	0.0076293945	
1739440672215	0.009155273	
1739440672216	-0.0022888184	
1739440672217	0.0025177002	
1739440672218	-0.0032043457	
1739440672219	-7.6293945E-4	
1739440672220	0.0047302246	
1739440672221	-0.0018310547	
1739440672222	0.0050354004	
1739440672223	3.8146973E-4	
1739440672224	-0.004119873	
1739440672225	0.006790161	
1739440672226	-2.2888184E-4	
1739440672227	-7.6293945E-4	
1739440672228	0.008392334	
1739440672229	0.0022125244	
1739440672230	-0.0017547607	
1739440672231	-6.1035156E-4	
1739440672232	-0.0036621094	
1739440672233	-0.0049591064	
1739440672234	-1.5258789E-4	
1739440672235	-0.0022888184	
1739440672236	-0.0046539307	
1739440672237	0.0035095215	
1739440672238	9.1552734E-4	
1739440672239	-0.0029754639	
1739440672240	-0.0011444092	
1739440672241	-0.0016784668	
1739440672242	0.0025939941	
1739440672243	6.1035156E-4	
1739440672244	-4.5776367E-4	
1739440672245	0.0022888184	
1739440672246	0.0015258789	
1739440672247	0.0022125244	
1739440672248	-0.0063323975	
1739440672249	-0.0033569336	
1739440672250	0.0030517578	
1739440672251	-0.0048065186	
1739440672252	0.0022888184	
1739440672253	2.2888184E-4	
1739440672254	-0.010528564	
1739440672255	-0.0061035156	
1739440672256	0.0033569336	
1739440672257	0.01701355	
1739440672258	0.015335083	
1739440672259	-9.918213E-4	
1739440672260	-0.009613037	
1739440672261	-0.012054443	
1739440672262	-0.0047302246	
1739440672263	0.00541687	
1739440672264	0.0025939941	
1739440672265	0.007019043	
1739440672266	0.008926392	
1739440672267	-0.0065612793	
1739440672268	-0.015411377	
1739440672269	-0.00869751	
1739440672270	0.002670288	
1739440672271	0.0038909912	
1739440672272	0.0048828125	
1739440672273	0.0011444092	
1739440672274	-0.0022888184	
1739440672275	0.0015258789	
1739440672276	-0.0064849854	
1739440672277	-0.0033569336	
1739440672278	0.0032806396	
1739440672279	-0.0022125244	
1739440672280	3.8146973E-4	
1739440672281	0.010910034	
1739440672282	0.015411377	
1739440672283	0.013809204	
1739440672284	0.0118255615	
1739440672285	0.0032806396	
1739440672286	-3.8146973E-4	
1739440672287	-0.0059509277	
1739440672288	-0.015106201	
1739440672289	-0.0065612793	
1739440672290	-0.0032806396	
1739440672291	-0.0049591064	
1739440672292	-0.0035858154	
1739440672293	-0.0076293945	
1739440672294	-0.0061035156	
1739440672295	-0.0065612793	
1739440672296	-0.002670288	
1739440672297	0.0029754639	
1739440672298	3.0517578E-4	
1739440672299	0.007171631	
1739440672300	0.0049591064	
1739440672301	-0.0025939941	
1739440672302	3.0517578E-4	
1739440672303	-0.0015258789	
1739440672304	0.0029754639	
1739440672305	0.004272461	
1739440672306	-0.002746582	
1739440672307	0.0023651123	
1739440672308	0.0038909912	
1739440672309	-0.005874634	
1739440672310	-0.0036621094	
1739440672311	-0.0025177002	
1739440672312	-0.008239746	
1739440672313	4.5776367E-4	
1739440672314	0.004196167	
1739440672315	9.1552734E-4	
1739440672316	-3.8146973E-4	
1739440672317	0.0	
1739440672318	0.0033569336	
1739440672319	1.5258789E-4	
1739440672320	0.0038146973	
1739440672321	0.009384155	
1739440672322	0.0066375732	
1739440672323	0.0032043457	
1739440672324	-3.0517578E-4	
1739440672325	0.0010681152	
1739440672326	0.0024414062	
1739440672327	-0.0031280518	
1739440672328	-0.009613037	
1739440672329	-0.009460449	
1739440672330	-0.0035095215	
1739440672331	-1.5258789E-4	
1739440672332	0.004425049	
1739440672333	0.008163452	
1739440672334	0.0018310547	
1739440672335	-0.00541687	
1739440672336	-0.0045776367	
1739440672337	0.00289917	
1739440672338	0.0061035156	
1739440672339	-0.0035095215	
1739440672340	-0.0076293945	
1739440672341	0.006942749	
1739440672342	0.007171631	
1739440672343	-0.00541687	
1739440672344	6.866455E-4	
1739440672345	0.0036621094	
1739440672346	-0.0048065186	
1739440672347	-0.007095337	
1739440672348	-0.012588501	
1739440672349	-0.009994507	
1739440672350	0.00541687	
1739440672351	0.0045776367	
1739440672352	-6.1035156E-4	
1739440672353	-0.0015258789	
1739440672354	-0.010986328	
1739440672355	-0.0018310547	
1739440672356	0.023269653	
1739440672357	0.021438599	
1739440672358	0.010299683	
1739440672359	0.0033569336	
1739440672360	-0.006713867	
1739440672361	-0.0035095215	
1739440672362	-0.0025177002	
1739440672363	-0.0065612793	
1739440672364	-0.0025177002	
1739440672365	-1.5258789E-4	
1739440672366	7.6293945E-5	
1739440672367	-0.002822876	
1739440672368	-0.0016784668	
1739440672369	0.0022125244	
1739440672370	-0.004119873	
1739440672371	-0.0019073486	
1739440672372	0.0034332275	
1739440672373	0.002822876	
1739440672374	0.002822876	
1739440672375	-0.00579834	
1739440672376	-0.010910034	
1739440672377	-0.006790161	
1739440672378	0.0019073486	
1739440672379	0.0037384033	
1739440672380	-0.001449585	
1739440672381	0.002746582	
1739440672382	0.0025177002	
1739440672383	-0.0016784668	
1739440672384	-0.0018310547	
1739440672385	-0.0016021729	
1739440672386	-0.005874634	
1739440672387	-0.009460449	
1739440672388	0.004119873	
1739440672389	0.012893677	
1739440672390	0.004348755	
1739440672391	-0.001449585	
1739440672392	-0.0019073486	
1739440672393	-1.5258789E-4	
1739440672394	0.006942749	
1739440672395	0.009384155	
1739440672396	0.007095337	
1739440672397	0.005493164	
1739440672398	-0.005645752	
1739440672399	-0.00831604	
1739440672400	0.0038909912	
1739440672401	0.005569458	
1739440672402	-0.0038909912	
1739440672403	-0.010528564	
1739440672404	-0.009231567	
1739440672405	0.0025177002	
1739440672406	0.009918213	
1739440672407	0.0045776367	
1739440672408	0.0065612793	
1739440672409	0.00579834	
1739440672410	-0.0064086914	
1739440672411	-0.013656616	
1739440672412	-0.012054443	
1739440672413	-0.0038146973	
1739440672414	0.0035858154	
1739440672415	0.004501343	
1739440672416	-0.0019836426	
1739440672417	-0.004272461	
1739440672418	-0.0022888184	
1739440672419	-2.2888184E-4	
1739440672420	0.004043579	
1739440672421	-0.0032043457	
1739440672422	-0.007858276	
1739440672423	0.0025177002	
1739440672424	0.005645752	
1739440672425	0.0012207031	
1739440672426	4.5776367E-4	
1739440672427	0.0038146973	
1739440672428	0.0035095215	
1739440672429	0.0022125244	
1739440672430	0.0047302246	
1739440672431	0.0017547607	
1739440672432	0.001373291	
1739440672433	0.0036621094	
1739440672434	0.001373291	
1739440672435	-9.1552734E-4	
1739440672436	-0.0011444092	
1739440672437	-0.0012207031	
1739440672438	-0.0048828125	
1739440672439	-0.0031280518	
1739440672440	-5.340576E-4	
1739440672441	-6.866455E-4	
1739440672442	0.0012207031	
1739440672443	-0.0017547607	
1739440672444	-0.0016021729	
1739440672445	-7.6293945E-4	
1739440672446	-0.0012969971	
1739440672447	0.0	
1739440672448	-0.009384155	
1739440672449	-0.018234253	
1739440672450	-0.0038909912	
1739440672451	0.0090789795	
1739440672452	-9.1552734E-4	
1739440672453	0.0012969971	
1739440672454	0.015716553	
1739440672455	0.012664795	
1739440672456	0.010147095	
1739440672457	0.010528564	
1739440672458	0.0031280518	
1739440672459	0.0037384033	
1739440672460	0.0019836426	
1739440672461	-0.009536743	
1739440672462	-0.005264282	
1739440672463	0.0029754639	
1739440672464	-0.008010864	
1739440672465	-0.012817383	
1739440672466	-0.0015258789	
1739440672467	5.340576E-4	
1739440672468	-0.0036621094	
1739440672469	-0.0032806396	
1739440672470	-8.392334E-4	
1739440672471	-2.2888184E-4	
1739440672472	-0.00579834	
1739440672473	-0.005722046	
1739440672474	4.5776367E-4	
1739440672475	-0.0019073486	
1739440672476	0.0018310547	
1739440672477	0.010070801	
1739440672478	0.0012969971	
1739440672479	-9.918213E-4	
1739440672480	0.008239746	
1739440672481	0.0016021729	
1739440672482	-0.0060272217	
1739440672483	-0.001373291	
1739440672484	0.0018310547	
1739440672485	0.0047302246	
1739440672486	0.0050354004	
1739440672487	0.0029754639	
1739440672488	6.866455E-4	
1739440672489	-0.0029754639	
1739440672490	-0.0061798096	
1739440672491	-0.0046539307	
1739440672492	-6.866455E-4	
1739440672493	-7.6293945E-4	
1739440672494	0.00289917	
1739440672495	0.005340576	
1739440672496	0.005569458	
1739440672497	0.0032043457	
1739440672498	-0.0021362305	
1739440672499	-0.0038909912	
1739440672500	-0.004119873	
1739440672501	-0.0010681152	
1739440672502	-0.0023651123	
1739440672503	-0.0061798096	
1739440672504	-1.5258789E-4	
1739440672505	0.010147095	
1739440672506	0.00579834	
1739440672507	-0.016326904	
1739440672508	-0.016326904	
1739440672509	0.004272461	
1739440672510	0.0046539307	
1739440672511	0.0036621094	
1739440672512	0.0018310547	
1739440672513	-0.0051116943	
1739440672514	-6.1035156E-4	
1739440672515	1.5258789E-4	
1739440672516	0.002822876	
1739440672517	0.008621216	
1739440672518	0.0060272217	
1739440672519	0.0031280518	
1739440672520	0.0063323975	
1739440672521	0.01159668	
1739440672522	0.004501343	
1739440672523	-3.0517578E-4	
1739440672524	0.001373291	
1739440672525	-0.0035858154	
1739440672526	-6.866455E-4	
1739440672527	-0.0016784668	
1739440672528	-0.0074768066	
1739440672529	-0.0051879883	
1739440672530	-0.0050354004	
1739440672531	-0.002670288	
1739440672532	-0.0022888184	
1739440672533	-0.00831604	
1739440672534	-0.008773804	
1739440672535	-0.004196167	
1739440672536	-0.0033569336	
1739440672537	-0.005340576	
1739440672538	-6.866455E-4	
1739440672539	0.006866455	
1739440672540	0.0090789795	
1739440672541	0.001373291	
1739440672542	-0.005340576	
1739440672543	0.00793457	
1739440672544	0.010757446	
1739440672545	-0.002670288	
1739440672546	-0.0047302246	
1739440672547	-0.0063323975	
1739440672548	0.0020599365	
1739440672549	0.008468628	
1739440672550	4.5776367E-4	
1739440672551	0.01083374	
1739440672552	0.013885498	
1739440672553	-0.0037384033	
1739440672554	-0.010910034	
1739440672555	-0.011520386	
1739440672556	-0.006866455	
1739440672557	-0.0037384033	
1739440672558	6.866455E-4	
1739440672559	0.010528564	
1739440672560	0.010681152	
1739440672561	0.009231567	
1739440672562	0.0064849854	
1739440672563	-0.0022888184	
1739440672564	-0.0132751465	
1739440672565	-0.0047302246	
1739440672566	0.012817383	
1739440672567	-0.0016021729	
1739440672568	-0.019378662	
1739440672569	-0.019226074	
1739440672570	-0.006866455	
1739440672571	0.0031280518	
1739440672572	0.0032806396	
1739440672573	0.0049591064	
1739440672574	0.004501343	
1739440672575	0.010147095	
1739440672576	0.004196167	
1739440672577	-0.010070801	
1739440672578	-0.0060272217	
1739440672579	0.0023651123	
1739440672580	0.0051116943	
1739440672581	0.004043579	
1739440672582	0.00541687	
1739440672583	0.0061035156	
1739440672584	0.003967285	
1739440672585	7.6293945E-5	
1739440672586	-4.5776367E-4	
1739440672587	0.0035858154	
1739440672588	-0.0024414062	
1739440672589	-0.004272461	
1739440672590	0.0016021729	
1739440672591	2.2888184E-4	
1739440672592	-3.8146973E-4	
1739440672593	-1.5258789E-4	
1739440672594	-0.0010681152	
1739440672595	-0.0019073486	
1739440672596	-0.002822876	
1739440672597	-0.0011444092	
1739440672598	-0.0021362305	
1739440672599	-0.0029754639	
1739440672600	-0.0029754639	
1739440672601	-0.003967285	
1739440672602	-0.0010681152	
1739440672603	4.5776367E-4	
1739440672604	5.340576E-4	
1739440672605	-0.0018310547	
1739440672606	-0.005645752	
1739440672607	-9.1552734E-4	
1739440672608	0.0011444092	
1739440672609	9.1552734E-4	
1739440672610	0.004501343	
1739440672611	0.004043579	
1739440672612	0.0037384033	
1739440672613	8.392334E-4	
1739440672614	-0.0030517578	
1739440672615	-0.0025177002	
1739440672616	-0.001373291	
1739440672617	-0.0022125244	
1739440672618	-5.340576E-4	
1739440672619	0.0077056885	
1739440672620	0.0050354004	
1739440672621	-1.5258789E-4	
1739440672622	0.002670288	
1739440672623	0.0037384033	
1739440672624	0.0020599365	
1739440672625	-0.0029754639	
1739440672626	-0.0020599365	
1739440672627	2.2888184E-4	
1739440672628	0.001373291	
1739440672629	0.002670288	
1739440672630	-0.001373291	
1739440672631	0.0022125244	
1739440672632	0.005569458	
1739440672633	-0.0062561035	
1739440672634	-0.008468628	
1739440672635	-0.0032043457	
1739440672636	-0.009307861	
1739440672637	-0.008010864	
1739440672638	6.1035156E-4	
1739440672639	0.0015258789	
1739440672640	-0.0017547607	
1739440672641	-7.6293945E-4	
1739440672642	0.004272461	
1739440672643	0.0060272217	
1739440672644	0.01083374	
1739440672645	0.010070801	
1739440672646	7.6293945E-4	
1739440672647	-0.0024414062	
1739440672648	-0.0019073486	
1739440672649	8.392334E-4	
1739440672650	-9.918213E-4	
1739440672651	-0.004043579	
1739440672652	-0.0017547607	
1739440672653	-0.0022888184	
1739440672654	-0.0035858154	
1739440672655	-0.004501343	
1739440672656	-0.0051116943	
1739440672657	-0.0021362305	
1739440672658	7.6293945E-4	
1739440672659	0.0023651123	
1739440672660	0.005722046	
1739440672661	0.007095337	
1739440672662	0.0062561035	
1739440672663	0.0061798096	
1739440672664	-0.0015258789	
1739440672665	-0.0051116943	
1739440672666	0.0011444092	
1739440672667	-0.005569458	
1739440672668	-0.011520386	
1739440672669	-0.008773804	
1739440672670	-0.003967285	
1739440672671	0.007858276	
1739440672672	0.0060272217	
1739440672673	-7.6293945E-4	
1739440672674	0.0017547607	
1739440672675	0.0023651123	
1739440672676	0.0025177002	
1739440672677	-7.6293945E-5	
1739440672678	-7.6293945E-4	
1739440672679	-4.5776367E-4	
1739440672680	-0.0017547607	
1739440672681	-2.2888184E-4	
1739440672682	0.0023651123	
1739440672683	0.005340576	
1739440672684	0.0038146973	
1739440672685	0.0016784668	
1739440672686	9.918213E-4	
1739440672687	-0.001449585	
1739440672688	-0.0012969971	
1739440672689	-0.00289917	
1739440672690	-0.0060272217	
1739440672691	-0.0012969971	
1739440672692	0.0010681152	
1739440672693	-0.0021362305	
1739440672694	-9.1552734E-4	
1739440672695	0.0033569336	
1739440672696	0.008239746	
1739440672697	0.004272461	
1739440672698	-0.0051879883	
1739440672699	-0.0077819824	
1739440672700	-0.0021362305	
1739440672701	0.004196167	
1739440672702	0.0011444092	
1739440672703	-0.0016021729	
1739440672704	1.5258789E-4	
1739440672705	-9.918213E-4	
1739440672706	-0.0010681152	
1739440672707	-0.002822876	
1739440672708	-0.0038909912	
1739440672709	-8.392334E-4	
1739440672710	3.0517578E-4	
1739440672711	0.0025939941	
1739440672712	0.00289917	
1739440672713	-0.0034332275	
1739440672714	-0.00579834	
1739440672715	5.340576E-4	
1739440672716	0.002670288	
1739440672717	0.0036621094	
1739440672718	0.0035095215	
1739440672719	-9.918213E-4	
1739440672720	0.0022888184	
1739440672721	0.005493164	
1739440672722	0.0021362305	
1739440672723	-0.0033569336	
1739440672724	-0.0047302246	
1739440672725	0.0021362305	
1739440672726	0.0021362305	
1739440672727	-4.5776367E-4	
1739440672728	-0.0033569336	
1739440672729	-0.009155273	
1739440672730	-0.0038146973	
1739440672731	0.0012969971	
1739440672732	0.0019073486	
1739440672733	0.0035095215	
1739440672734	0.0016784668	
1739440672735	0.0065612793	
1739440672736	0.009002686	
1739440672737	-0.001449585	
1739440672738	-0.0060272217	
1739440672739	-0.0034332275	
1739440672740	-0.0015258789	
1739440672741	0.0049591064	
1739440672742	0.007247925	
1739440672743	-0.0051116943	
1739440672744	-0.014877319	
1739440672745	-0.0090789795	
1739440672746	-0.0025939941	
1739440672747	0.004119873	
1739440672748	0.012817383	
1739440672749	0.012664795	
1739440672750	-0.0033569336	
1739440672751	-0.025863647	
1739440672752	-0.00831604	
1739440672753	0.016098022	
1739440672754	0.009918213	
1739440672755	0.011520386	
1739440672756	0.008621216	
1739440672757	0.011978149	
1739440672758	0.011367798	
1739440672759	-0.00289917	
1739440672760	-0.007171631	
1739440672761	-0.017166138	
1739440672762	-0.010604858	
1739440672763	-0.0063323975	
1739440672764	-0.014419556	
1739440672765	-0.0047302246	
1739440672766	0.0012207031	
1739440672767	0.006942749	
1739440672768	0.0037384033	
1739440672769	-0.009231567	
1739440672770	-0.0016021729	
1739440672771	0.0051879883	
1739440672772	0.0048065186	
1739440672773	0.0046539307	
1739440672774	-0.0018310547	
1739440672775	0.0012969971	
1739440672776	0.0032043457	
1739440672777	-0.0035095215	
1739440672778	0.004348755	
1739440672779	0.004348755	
1739440672780	-0.005722046	
1739440672781	3.0517578E-4	
1739440672782	9.918213E-4	
1739440672783	-0.002746582	
1739440672784	0.0025177002	
1739440672785	0.0045776367	
1739440672786	0.0051879883	
1739440672787	0.0017547607	
1739440672788	-0.0029754639	
1739440672789	0.0	
1739440672790	-7.6293945E-5	
1739440672791	-0.0025939941	
1739440672792	-8.392334E-4	
1739440672793	-0.0047302246	
1739440672794	-0.0064086914	
1739440672795	-1.5258789E-4	
1739440672796	6.1035156E-4	
1739440672797	-5.340576E-4	
1739440672798	-0.0016021729	
1739440672799	7.6293945E-4	
1739440672800	0.0032043457	
1739440672801	-0.001449585	
1739440672802	-3.0517578E-4	
1739440672803	0.0015258789	
1739440672804	3.0517578E-4	
1739440672805	9.1552734E-4	
1739440672806	3.8146973E-4	
1739440672807	0.0017547607	
1739440672808	0.0	
1739440672809	-0.0024414062	
1739440672810	7.6293945E-5	
1739440672811	2.2888184E-4	
1739440672812	0.0019836426	
1739440672813	0.005722046	
1739440672814	8.392334E-4	
1739440672815	-7.6293945E-5	
1739440672816	0.006713867	
1739440672817	0.008468628	
1739440672818	0.009002686	
1739440672819	0.0065612793	
1739440672820	6.866455E-4	
1739440672821	-0.008163452	
1739440672822	-0.012359619	
1739440672823	-0.010375977	
1739440672824	-0.013656616	
1739440672825	-0.011672974	
1739440672826	-0.00831604	
1739440672827	-0.005493164	
1739440672828	6.1035156E-4	
1739440672829	0.0016784668	
1739440672830	0.0019073486	
1739440672831	0.00289917	
1739440672832	0.0051116943	
1739440672833	0.0051116943	
1739440672834	0.004119873	
1739440672835	0.002746582	
1739440672836	0.0025939941	
1739440672837	0.0065612793	
1739440672838	0.0016021729	
1739440672839	-0.0029754639	
1739440672840	0.0019836426	
1739440672841	0.004501343	
1739440672842	0.0038146973	
1739440672843	9.1552734E-4	
1739440672844	-0.0049591064	
1739440672845	-0.006866455	
1739440672846	0.0032806396	
1739440672847	0.013656616	
1739440672848	0.0075531006	
1739440672849	-0.010604858	
1739440672850	-0.021743774	
1739440672851	-0.010681152	
1739440672852	3.8146973E-4	
1739440672853	0.004348755	
1739440672854	0.012359619	
1739440672855	0.0062561035	
1739440672856	3.0517578E-4	
1739440672857	0.0031280518	
1739440672858	0.002822876	
1739440672859	0.0022125244	
1739440672860	8.392334E-4	
1739440672861	0.0016784668	
1739440672862	0.0019073486	
1739440672863	-8.392334E-4	
1739440672864	-0.0036621094	
1739440672865	-0.004425049	
1739440672866	-0.004196167	
1739440672867	-0.004119873	
1739440672868	-0.002822876	
1739440672869	-0.004119873	
1739440672870	-0.007019043	
1739440672871	-0.0048065186	
1739440672872	0.00289917	
1739440672873	0.0031280518	
1739440672874	3.0517578E-4	
1739440672875	0.004501343	
1739440672876	0.002746582	
1739440672877	-0.001373291	
1739440672878	-0.0019836426	
1739440672879	-0.0016021729	
1739440672880	-0.0019073486	
1739440672881	-0.005569458	
1739440672882	-0.0024414062	
1739440672883	0.0020599365	
1739440672884	0.0031280518	
1739440672885	0.0061035156	
1739440672886	0.0037384033	
1739440672887	0.0024414062	
1739440672888	0.005493164	
1739440672889	-9.1552734E-4	
1739440672890	-9.918213E-4	
1739440672891	0.00793457	
1739440672892	0.005645752	
1739440672893	-6.1035156E-4	
1739440672894	-0.0064086914	
1739440672895	-0.0051116943	
1739440672896	-5.340576E-4	
1739440672897	-0.0011444092	
1739440672898	-3.8146973E-4	
1739440672899	0.0015258789	
1739440672900	0.0038909912	
1739440672901	0.0033569336	
1739440672902	0.0016784668	
1739440672903	-0.005722046	
1739440672904	-0.012969971	
1739440672905	-0.00579834	
1739440672906	6.1035156E-4	
1739440672907	-0.0020599365	
1739440672908	1.5258789E-4	
1739440672909	0.0048828125	
1739440672910	0.004501343	
1739440672911	0.009155273	
1739440672912	0.0075531006	
1739440672913	-0.0010681152	
1739440672914	0.0012207031	
1739440672915	0.0022125244	
1739440672916	-1.5258789E-4	
1739440672917	-0.0047302246	
1739440672918	-0.0060272217	
1739440672919	-3.8146973E-4	
1739440672920	-0.0048828125	
1739440672921	-0.0045776367	
1739440672922	-7.6293945E-5	
1739440672923	-0.008468628	
1739440672924	-0.008239746	
1739440672925	2.2888184E-4	
1739440672926	4.5776367E-4	
1739440672927	0.0025939941	
1739440672928	0.007019043	
1739440672929	0.005264282	
1739440672930	0.0017547607	
1739440672931	5.340576E-4	
1739440672932	0.0018310547	
1739440672933	0.0050354004	
1739440672934	0.004348755	
1739440672935	-0.0046539307	
1739440672936	-0.007247925	
1739440672937	-0.0018310547	
1739440672938	-0.0019836426	
1739440672939	3.8146973E-4	
1739440672940	9.1552734E-4	
1739440672941	-3.0517578E-4	
1739440672942	0.008621216	
1739440672943	0.01739502	
1739440672944	0.01586914	
1739440672945	0.002670288	
1739440672946	-0.010986328	
1739440672947	-0.016174316	
1739440672948	-0.014877319	
1739440672949	-0.0063323975	
1739440672950	-0.0030517578	
1739440672951	-0.001373291	
1739440672952	6.1035156E-4	
1739440672953	-0.002822876	
1739440672954	0.0025177002	
1739440672955	0.0019836426	
1739440672956	3.0517578E-4	
1739440672957	0.0025939941	
1739440672958	0.0016784668	
1739440672959	0.0075531006	
1739440672960	0.00541687	
1739440672961	0.0017547607	
1739440672962	-0.0034332275	
1739440672963	-0.00541687	
1739440672964	0.0032806396	
1739440672965	-0.0022888184	
1739440672966	-3.0517578E-4	
1739440672967	0.011520386	
1739440672968	0.0066375732	
1739440672969	0.0017547607	
1739440672970	-0.003967285	
1739440672971	-0.010528564	
1739440672972	-0.0048828125	
1739440672973	-0.0029754639	
1739440672974	-0.0034332275	
1739440672975	0.004501343	
1739440672976	0.004348755	
1739440672977	-0.0022125244	
1739440672978	-0.0032806396	
1739440672979	-0.0050354004	
1739440672980	-0.00541687	
1739440672981	-0.001449585	
1739440672982	0.0018310547	
1739440672983	-0.0011444092	
1739440672984	-0.0019836426	
1739440672985	0.0051879883	
1739440672986	0.009841919	
1739440672987	0.012283325	
1739440672988	0.009002686	
1739440672989	-0.0037384033	
1739440672990	-0.009841919	
1739440672991	-0.0074005127	
1739440672992	-0.008544922	
1739440672993	-0.0016021729	
1739440672994	0.0051879883	
1739440672995	4.5776367E-4	
1739440672996	0.0038146973	
1739440672997	0.0077056885	
1739440672998	0.0051116943	
1739440672999	8.392334E-4	
1739440673000	-0.010375977	
1739440673001	-0.011138916	
1739440673002	3.8146973E-4	
1739440673003	-5.340576E-4	
1739440673004	-0.004196167	
1739440673005	-0.0048065186	
1739440673006	-0.002822876	
1739440673007	0.0077819824	
1739440673008	0.015792847	
1739440673009	0.015640259	
1739440673010	0.002670288	
1739440673011	-0.008850098	
1739440673012	-0.010986328	
1739440673013	-0.014343262	
1739440673014	-0.008239746	
1739440673015	-3.0517578E-4	
1739440673016	0.002822876	
1739440673017	0.008621216	
1739440673018	0.010375977	
1739440673019	0.008773804	
1739440673020	0.007095337	
1739440673021	0.0021362305	
1739440673022	-0.0046539307	
1739440673023	-0.004043579	
1739440673024	-0.004348755	
1739440673025	-0.008163452	
1739440673026	-0.0034332275	
1739440673027	4.5776367E-4	
1739440673028	0.0018310547	
1739440673029	-0.001449585	
1739440673030	-0.0019073486	
1739440673031	0.0063323975	
1739440673032	0.0037384033	
1739440673033	0.0021362305	
1739440673034	9.918213E-4	
1739440673035	-0.003967285	
1739440673036	-0.0019836426	
1739440673037	-0.0019073486	
1739440673038	8.392334E-4	
1739440673039	0.0038909912	
1739440673040	0.0036621094	
1739440673041	0.001449585	
1739440673042	3.0517578E-4	
1739440673043	-3.0517578E-4	
1739440673044	-0.0077056885	
1739440673045	-0.010299683	
1739440673046	-0.0047302246	
1739440673047	4.5776367E-4	
1739440673048	0.005569458	
1739440673049	0.005645752	
1739440673050	0.0036621094	
1739440673051	0.005569458	
1739440673052	0.0048828125	
1739440673053	0.0031280518	
1739440673054	-0.0064849854	
1739440673055	-0.018539429	
1739440673056	-0.014953613	
1739440673057	-0.010070801	
1739440673058	-0.006790161	
1739440673059	0.00579834	
1739440673060	0.0064086914	
1739440673061	0.004196167	
1739440673062	0.013427734	
1739440673063	0.006713867	
1739440673064	3.8146973E-4	
1739440673065	0.0061035156	
1739440673066	0.004272461	
1739440673067	0.0024414062	
1739440673068	7.6293945E-5	
1739440673069	-0.002746582	
1739440673070	6.1035156E-4	
1739440673071	1.5258789E-4	
1739440673072	-0.0025939941	
1739440673073	-9.918213E-4	
1739440673074	0.0	
1739440673075	6.1035156E-4	
1739440673076	3.8146973E-4	
1739440673077	-0.003967285	
1739440673078	-0.008087158	
1739440673079	-0.0076293945	
1739440673080	6.1035156E-4	
1739440673081	0.010070801	
1739440673082	0.009994507	
1739440673083	0.012435913	
1739440673084	0.012893677	
1739440673085	6.1035156E-4	
1739440673086	-0.0065612793	
1739440673087	-0.007247925	
1739440673088	-0.0064849854	
1739440673089	-0.0033569336	
1739440673090	-0.0033569336	
1739440673091	9.918213E-4	
1739440673092	-0.001449585	
1739440673093	-0.0073242188	
1739440673094	-0.0025939941	
1739440673095	-0.002670288	
1739440673096	-0.0012207031	
1739440673097	3.0517578E-4	
1739440673098	-0.0038909912	
1739440673099	-0.0012207031	
1739440673100	0.0020599365	
1739440673101	-6.1035156E-4	
1739440673102	-7.6293945E-4	
1739440673103	0.0016784668	
1739440673104	0.0018310547	
1739440673105	3.0517578E-4	
1739440673106	-7.6293945E-5	
1739440673107	3.0517578E-4	
1739440673108	-1.5258789E-4	
1739440673109	0.0022888184	
1739440673110	0.0031280518	
1739440673111	-7.6293945E-5	
1739440673112	0.0011444092	
1739440673113	0.0031280518	
1739440673114	-3.0517578E-4	
1739440673115	-0.00289917	
1739440673116	-0.0018310547	
1739440673117	-0.004119873	
1739440673118	-0.006713867	
1739440673119	0.0024414062	
1739440673120	0.009307861	
1739440673121	0.0059509277	
1739440673122	0.009002686	
1739440673123	0.0075531006	
1739440673124	7.6293945E-4	
1739440673125	0.0022888184	
1739440673126	0.0012969971	
1739440673127	0.0	
1739440673128	-0.0030517578	
1739440673129	-0.008926392	
1739440673130	-0.009155273	
1739440673131	-0.009231567	
1739440673132	-0.0047302246	
1739440673133	0.0016784668	
1739440673134	0.0033569336	
1739440673135	0.0	
1739440673136	-0.0059509277	
1739440673137	-0.0035858154	
1739440673138	-0.0030517578	
1739440673139	-0.007019043	
1739440673140	-0.005645752	
1739440673141	-0.0010681152	
1739440673142	0.002746582	
1739440673143	0.0015258789	
1739440673144	0.0047302246	
1739440673145	0.011062622	
1739440673146	0.008621216	
1739440673147	0.004425049	
1739440673148	0.0064849854	
1739440673149	0.0060272217	
1739440673150	-0.0024414062	
1739440673151	-0.0035858154	
1739440673152	-7.6293945E-5	
1739440673153	5.340576E-4	
1739440673154	4.5776367E-4	
1739440673155	-0.0020599365	
1739440673156	3.8146973E-4	
1739440673157	0.0045776367	
1739440673158	0.004272461	
1739440673159	0.0034332275	
1739440673160	0.0015258789	
1739440673161	-0.0012969971	
1739440673162	5.340576E-4	
1739440673163	-2.2888184E-4	
1739440673164	-0.008010864	
1739440673165	-0.0074005127	
1739440673166	-0.008163452	
1739440673167	-0.0073242188	
1739440673168	0.0020599365	
1739440673169	-3.0517578E-4	
1739440673170	-0.002822876	
1739440673171	-0.001373291	
1739440673172	-0.0017547607	
1739440673173	0.0016784668	
1739440673174	-3.0517578E-4	
1739440673175	-0.0018310547	
1739440673176	0.0025939941	
1739440673177	-7.6293945E-5	
1739440673178	-0.0012969971	
1739440673179	0.00541687	
1739440673180	0.0076293945	
1739440673181	0.004348755	
1739440673182	0.0012207031	
1739440673183	2.2888184E-4	
1739440673184	-0.001373291	
1739440673185	-0.0012207031	
1739440673186	-0.0012969971	
1739440673187	-0.0025177002	
1739440673188	-6.866455E-4	
1739440673189	2.2888184E-4	
1739440673190	-0.0011444092	
1739440673191	0.0012969971	
1739440673192	0.006790161	
1739440673193	8.392334E-4	
1739440673194	-0.005645752	
1739440673195	-5.340576E-4	
1739440673196	-0.0030517578	
1739440673197	-0.0022888184	
1739440673198	0.005340576	
1739440673199	6.1035156E-4	
1739440673200	-1.5258789E-4	
1739440673201	0.0073242188	
1739440673202	0.003967285	
1739440673203	-0.011138916	
1739440673204	-0.012207031	
1739440673205	6.866455E-4	
1739440673206	0.0016021729	
1739440673207	-0.0048065186	
1739440673208	-0.0036621094	
1739440673209	0.0012969971	
1739440673210	0.00289917	
1739440673211	0.005722046	
1739440673212	4.5776367E-4	
1739440673213	-0.0037384033	
1739440673214	-8.392334E-4	
1739440673215	-0.005569458	
1739440673216	0.0023651123	
1739440673217	0.010070801	
1739440673218	0.004196167	
1739440673219	0.0029754639	
1739440673220	-6.1035156E-4	
1739440673221	-0.0011444092	
1739440673222	0.0021362305	
1739440673223	1.5258789E-4	
1739440673224	0.0035858154	
1739440673225	0.0049591064	
1739440673226	-0.0020599365	
1739440673227	-6.866455E-4	
1739440673228	-0.0018310547	
1739440673229	-0.008544922	
1739440673230	-0.002822876	
1739440673231	6.866455E-4	
1739440673232	-0.0012207031	
1739440673233	0.0045776367	
1739440673234	0.00541687	
1739440673235	-0.0048828125	
1739440673236	-0.008850098	
1739440673237	-0.0032043457	
1739440673238	2.2888184E-4	
1739440673239	0.0030517578	
1739440673240	0.004043579	
1739440673241	0.002822876	
1739440673242	0.0051116943	
1739440673243	0.004196167	
1739440673244	-2.2888184E-4	
1739440673245	-0.0025939941	
1739440673246	-0.00289917	
1739440673247	-2.2888184E-4	
1739440673248	7.6293945E-4	
1739440673249	-0.0012969971	
1739440673250	0.0010681152	
1739440673251	-8.392334E-4	
1739440673252	-0.0030517578	
1739440673253	9.918213E-4	
1739440673254	3.8146973E-4	
1739440673255	7.6293945E-5	
1739440673256	-0.0024414062	
1739440673257	-0.0045776367	
1739440673258	-0.004119873	
1739440673259	-0.005264282	
1739440673260	-3.0517578E-4	
1739440673261	0.0030517578	
1739440673262	0.005569458	
1739440673263	0.0046539307	
1739440673264	-7.6293945E-4	
1739440673265	-0.0017547607	
1739440673266	-0.0015258789	
1739440673267	-7.6293945E-5	
1739440673268	-3.8146973E-4	
1739440673269	-0.0016784668	
1739440673270	-0.001373291	
1739440673271	0.0017547607	
1739440673272	0.004501343	
1739440673273	0.0090789795	
1739440673274	0.0032806396	
1739440673275	-0.011062622	
1739440673276	-0.0037384033	
1739440673277	2.2888184E-4	
1739440673278	-0.005340576	
1739440673279	-0.002670288	
1739440673280	-0.0023651123	
1739440673281	0.0029754639	
1739440673282	0.0062561035	
1739440673283	0.006942749	
1739440673284	0.0074768066	
1739440673285	0.0016021729	
1739440673286	-0.0011444092	
1739440673287	0.0	
1739440673288	0.0038146973	
1739440673289	-0.0025177002	
1739440673290	-0.009231567	
1739440673291	-0.0019836426	
1739440673292	-0.0011444092	
1739440673293	-7.6293945E-4	
1739440673294	-7.6293945E-5	
1739440673295	-0.004348755	
1739440673296	0.0011444092	
1739440673297	-0.0033569336	
1739440673298	-0.012664795	
1739440673299	-9.918213E-4	
1739440673300	0.00579834	
1739440673301	0.0012969971	
1739440673302	0.0038146973	
1739440673303	0.006942749	
1739440673304	0.0024414062	
1739440673305	-0.0016784668	
1739440673306	7.6293945E-4	
1739440673307	0.0025939941	
1739440673308	0.0020599365	
1739440673309	0.0037384033	
1739440673310	0.0035095215	
1739440673311	0.0016021729	
1739440673312	0.0011444092	
1739440673313	0.0022125244	
1739440673314	0.0035858154	
1739440673315	-0.002822876	
1739440673316	-0.0023651123	
1739440673317	0.0048828125	
1739440673318	0.0017547607	
1739440673319	0.001373291	
1739440673320	2.2888184E-4	
1739440673321	-0.005874634	
1739440673322	-0.008010864	
1739440673323	-0.006790161	
1739440673324	-5.340576E-4	
1739440673325	7.6293945E-5	
1739440673326	-0.004043579	
1739440673327	-0.0038909912	
1739440673328	-0.005264282	
1739440673329	-0.002670288	
1739440673330	-3.8146973E-4	
1739440673331	-0.0033569336	
1739440673332	-0.0022888184	
1739440673333	-0.006713867	
1739440673334	-0.0076293945	
1739440673335	4.5776367E-4	
1739440673336	0.0012207031	
1739440673337	0.0064849854	
1739440673338	0.0073242188	
1739440673339	0.0010681152	
1739440673340	0.0021362305	
1739440673341	7.6293945E-5	
1739440673342	0.0051116943	
1739440673343	0.00831604	
1739440673344	0.0018310547	
1739440673345	0.0059509277	
1739440673346	0.010604858	
1739440673347	0.0066375732	
1739440673348	-0.0019073486	
1739440673349	-0.0051116943	
1739440673350	-0.0023651123	
1739440673351	0.0	
1739440673352	-0.0012969971	
1739440673353	-0.001449585	
1739440673354	0.0030517578	
1739440673355	5.340576E-4	
1739440673356	0.0032806396	
1739440673357	0.006942749	
1739440673358	-0.0019836426	
1739440673359	-0.0022888184	
1739440673360	-3.8146973E-4	
1739440673361	-0.002670288	
1739440673362	-0.0012207031	
1739440673363	-0.0010681152	
1739440673364	-0.0021362305	
1739440673365	-0.0019073486	
1739440673366	-6.866455E-4	
1739440673367	-0.0032806396	
1739440673368	-0.0065612793	
1739440673369	-0.009918213	
1739440673370	-0.0090789795	
1739440673371	-0.0018310547	
1739440673372	6.866455E-4	
1739440673373	-5.340576E-4	
1739440673374	-0.00541687	
1739440673375	-2.2888184E-4	
1739440673376	0.0035095215	
1739440673377	-0.0035095215	
1739440673378	0.0035095215	
1739440673379	0.006942749	
1739440673380	0.00541687	
1739440673381	0.0076293945	
1739440673382	0.0025177002	
1739440673383	0.0016784668	
1739440673384	0.0017547607	
1739440673385	-0.0012207031	
1739440673386	0.003967285	
1739440673387	0.0063323975	
1739440673388	0.0032806396	
1739440673389	0.0020599365	
1739440673390	-0.0016784668	
1739440673391	-0.0051116943	
1739440673392	-0.0031280518	
1739440673393	-0.005722046	
1739440673394	-0.0063323975	
1739440673395	-0.0016021729	
1739440673396	-9.1552734E-4	
1739440673397	-6.866455E-4	
1739440673398	0.0050354004	
1739440673399	3.8146973E-4	
1739440673400	-0.0022888184	
1739440673401	0.0017547607	
1739440673402	0.0022888184	
1739440673403	0.0034332275	
1739440673404	-0.0038146973	
1739440673405	-6.1035156E-4	
1739440673406	0.0060272217	
1739440673407	0.0020599365	
1739440673408	0.0062561035	
1739440673409	0.0020599365	
1739440673410	-0.0025939941	
1739440673411	0.00289917	
1739440673412	0.0024414062	
1739440673413	-0.002746582	
1739440673414	0.0029754639	
1739440673415	0.009155273	
1739440673416	0.0029754639	
1739440673417	-0.0030517578	
1739440673418	-0.001449585	
1739440673419	0.0020599365	
1739440673420	-0.005645752	
1739440673421	-0.010070801	
1739440673422	-0.009613037	
1739440673423	-0.009460449	
1739440673424	0.00289917	
1739440673425	0.0036621094	
1739440673426	-0.0019836426	
1739440673427	-2.2888184E-4	
1739440673428	-0.004425049	
1739440673429	-0.0038146973	
1739440673430	-0.0029754639	
1739440673431	-0.0017547607	
1739440673432	0.0012207031	
1739440673433	0.004043579	
1739440673434	0.008087158	
1739440673435	-0.0029754639	
1739440673436	-0.01121521	
1739440673437	4.5776367E-4	
1739440673438	0.006713867	
1739440673439	0.0048828125	
1739440673440	0.004196167	
1739440673441	0.001373291	
1739440673442	9.1552734E-4	
1739440673443	0.0061798096	
1739440673444	-9.918213E-4	
1739440673445	-0.009384155	
1739440673446	-0.006713867	
1739440673447	-0.0019836426	
1739440673448	-0.005264282	
1739440673449	-0.006866455	
1739440673450	-0.0018310547	
1739440673451	-0.001373291	
1739440673452	0.0	
1739440673453	0.0018310547	
1739440673454	0.0033569336	
1739440673455	0.002746582	
1739440673456	0.0038146973	
1739440673457	0.0074768066	
1739440673458	0.0023651123	
1739440673459	-0.0035095215	
1739440673460	-0.004196167	
1739440673461	0.002822876	
1739440673462	0.0064086914	
1739440673463	0.0017547607	
1739440673464	0.013656616	
1739440673465	0.012741089	
1739440673466	0.0047302246	
1739440673467	0.006790161	
1739440673468	0.0051879883	
1739440673469	0.009689331	
1739440673470	0.0064086914	
1739440673471	-0.0012969971	
1739440673472	-0.0016021729	
1739440673473	-6.866455E-4	
1739440673474	6.1035156E-4	
1739440673475	5.340576E-4	
1739440673476	-0.0066375732	
1739440673477	-0.010604858	
1739440673478	-0.0035858154	
1739440673479	0.001373291	
1739440673480	-0.0010681152	
1739440673481	-0.0019836426	
1739440673482	-0.0025177002	
1739440673483	-0.0065612793	
1739440673484	-0.008163452	
1739440673485	-0.008239746	
1739440673486	-0.009841919	
1739440673487	-0.0073242188	
1739440673488	-0.01083374	
1739440673489	-0.010375977	
1739440673490	0.0017547607	
1739440673491	1.5258789E-4	
1739440673492	0.002822876	
1739440673493	0.009689331	
1739440673494	0.004425049	
1739440673495	0.0025939941	
1739440673496	-5.340576E-4	
1739440673497	-0.0045776367	
1739440673498	-0.002746582	
1739440673499	0.0022888184	
1739440673500	-0.0010681152	
1739440673501	-0.0047302246	
1739440673502	2.2888184E-4	
1739440673503	-0.004119873	
1739440673504	-0.0051116943	
1739440673505	0.0062561035	
1739440673506	0.008087158	
1739440673507	0.0074768066	
1739440673508	0.0049591064	
1739440673509	0.0034332275	
1739440673510	0.0064086914	
1739440673511	0.0016784668	
1739440673512	0.006866455	
1739440673513	0.009231567	
1739440673514	0.0022888184	
1739440673515	0.0018310547	
1739440673516	0.0010681152	
1739440673517	5.340576E-4	
1739440673518	-0.0034332275	
1739440673519	-0.0017547607	
1739440673520	-9.918213E-4	
1739440673521	-0.004348755	
1739440673522	-7.6293945E-4	
1739440673523	-0.0045776367	
1739440673524	0.0022888184	
1739440673525	0.009002686	
1739440673526	-0.0019073486	
1739440673527	0.0016784668	
1739440673528	-9.1552734E-4	
1739440673529	-0.002746582	
1739440673530	-0.002822876	
1739440673531	-0.0066375732	
1739440673532	-0.0022888184	
1739440673533	-0.003967285	
1739440673534	0.0016021729	
1739440673535	0.0019836426	
1739440673536	-0.0010681152	
1739440673537	-0.0016021729	
1739440673538	-0.008468628	
1739440673539	-0.002822876	
1739440673540	0.0059509277	
1739440673541	8.392334E-4	
1739440673542	-0.0019836426	
1739440673543	2.2888184E-4	
1739440673544	-0.0035858154	
1739440673545	-0.004501343	
1739440673546	0.0015258789	
1739440673547	0.004043579	
1739440673548	0.0051116943	
1739440673549	0.012435913	
1739440673550	0.012969971	
1739440673551	9.918213E-4	
1739440673552	1.5258789E-4	
1739440673553	-0.0016021729	
1739440673554	-0.0038909912	
1739440673555	-0.003967285	
1739440673556	-0.006942749	
1739440673557	-0.0051879883	
1739440673558	-6.1035156E-4	
1739440673559	0.0060272217	
1739440673560	0.004272461	
1739440673561	4.5776367E-4	
1739440673562	0.002822876	
1739440673563	0.004196167	
1739440673564	0.0019073486	
1739440673565	-0.0019073486	
1739440673566	5.340576E-4	
1739440673567	-0.004425049	
1739440673568	-0.011062622	
1739440673569	-0.005569458	
1739440673570	-0.0035858154	
1739440673571	-0.005645752	
1739440673572	0.0022125244	
1739440673573	0.0035858154	
1739440673574	0.0022125244	
1739440673575	0.007171631	
1739440673576	-2.2888184E-4	
1739440673577	-0.002746582	
1739440673578	0.006790161	
1739440673579	0.0029754639	
1739440673580	0.0025939941	
1739440673581	0.0025177002	
1739440673582	-0.0036621094	
1739440673583	1.5258789E-4	
1739440673584	9.918213E-4	
1739440673585	-0.0045776367	
1739440673586	-0.0033569336	
1739440673587	-6.1035156E-4	
1739440673588	-0.002670288	
1739440673589	-0.0064849854	
1739440673590	-0.0038146973	
1739440673591	0.0022125244	
1739440673592	-1.5258789E-4	
1739440673593	4.5776367E-4	
1739440673594	0.0010681152	
1739440673595	-0.001373291	
1739440673596	2.2888184E-4	
1739440673597	0.00579834	
1739440673598	0.012893677	
1739440673599	0.009613037	
1739440673600	0.0061035156	
1739440673601	0.0025939941	
1739440673602	-0.0045776367	
1739440673603	-0.0025177002	
1739440673604	-0.0062561035	
1739440673605	-0.0045776367	
1739440673606	-1.5258789E-4	
1739440673607	2.2888184E-4	
1739440673608	0.0022888184	
1739440673609	-0.0032806396	
1739440673610	-0.001449585	
1739440673611	0.004196167	
1739440673612	-9.918213E-4	
1739440673613	-0.0045776367	
1739440673614	0.0016021729	
1739440673615	0.0022888184	
1739440673616	-0.0036621094	
1739440673617	-0.005569458	
1739440673618	-0.004119873	
1739440673619	0.004425049	
1739440673620	0.002822876	
1739440673621	0.0	
1739440673622	0.0048065186	
1739440673623	0.0022125244	
1739440673624	0.002822876	
1739440673625	-0.0037384033	
1739440673626	-0.00793457	
1739440673627	-0.0025939941	
1739440673628	9.1552734E-4	
1739440673629	0.001449585	
1739440673630	-9.918213E-4	
1739440673631	0.0019073486	
1739440673632	0.005722046	
1739440673633	0.007171631	
1739440673634	0.0019073486	
1739440673635	7.6293945E-5	
1739440673636	0.00289917	
1739440673637	-0.003967285	
1739440673638	-0.005264282	
1739440673639	-0.006790161	
1739440673640	-0.005645752	
1739440673641	6.1035156E-4	
1739440673642	0.0010681152	
1739440673643	7.6293945E-4	
1739440673644	-0.0032043457	
1739440673645	-0.001373291	
1739440673646	0.0016021729	
1739440673647	0.0033569336	
1739440673648	0.005493164	
1739440673649	-0.0020599365	
1739440673650	0.0012969971	
1739440673651	0.005569458	
1739440673652	9.1552734E-4	
1739440673653	0.0050354004	
1739440673654	0.007019043	
1739440673655	7.6293945E-5	
1739440673656	-0.0051879883	
1739440673657	-0.001373291	
1739440673658	0.002822876	
1739440673659	0.001449585	
1739440673660	-0.0049591064	
1739440673661	-0.013046265	
1739440673662	-0.0038146973	
1739440673663	-3.8146973E-4	
1739440673664	-0.0038146973	
1739440673665	0.0023651123	
1739440673666	2.2888184E-4	
1739440673667	0.0019836426	
1739440673668	0.0035858154	
1739440673669	-0.0016021729	
1739440673670	0.0018310547	
1739440673671	0.0	
1739440673672	-0.004272461	
1739440673673	0.004348755	
1739440673674	0.007019043	
1739440673675	0.0017547607	
1739440673676	4.5776367E-4	
1739440673677	-0.0035858154	
1739440673678	-0.0017547607	
1739440673679	0.00541687	
1739440673680	0.0024414062	
1739440673681	-0.0032806396	
1739440673682	-7.6293945E-5	
1739440673683	0.004196167	
1739440673684	0.0051879883	
1739440673685	0.009689331	
1739440673686	0.009536743	
1739440673687	0.007858276	
1739440673688	9.1552734E-4	
1739440673689	-0.01083374	
1739440673690	-0.014801025	
1739440673691	-0.017089844	
1739440673692	-0.008010864	
1739440673693	-0.004348755	
1739440673694	-0.0051879883	
1739440673695	0.0019073486	
1739440673696	9.918213E-4	
1739440673697	0.0045776367	
1739440673698	4.5776367E-4	
1739440673699	-0.0038909912	
1739440673700	0.004348755	
1739440673701	0.00541687	
1739440673702	0.005340576	
1739440673703	0.0063323975	
1739440673704	-8.392334E-4	
1739440673705	-0.005264282	
1739440673706	-0.0020599365	
1739440673707	-4.5776367E-4	
1739440673708	-9.918213E-4	
1739440673709	-0.0012207031	
1739440673710	0.0035095215	
1739440673711	0.0049591064	
1739440673712	0.004119873	
1739440673713	6.866455E-4	
1739440673714	0.0020599365	
1739440673715	0.0022888184	
1739440673716	-1.5258789E-4	
1739440673717	0.0036621094	
1739440673718	-0.0051879883	
1739440673719	-0.0029754639	
1739440673720	0.0029754639	
1739440673721	-0.004272461	
1739440673722	0.0038146973	
1739440673723	0.0074768066	
1739440673724	-0.0035858154	
1739440673725	-0.005874634	
1739440673726	-0.0018310547	
1739440673727	0.0	
1739440673728	0.0010681152	
1739440673729	0.0016784668	
1739440673730	-0.0024414062	
1739440673731	-0.0049591064	
1739440673732	-0.001449585	
1739440673733	-0.0011444092	
1739440673734	-0.0019836426	
1739440673735	-6.1035156E-4	
1739440673736	-3.8146973E-4	
1739440673737	6.866455E-4	
1739440673738	-0.0011444092	
1739440673739	8.392334E-4	
1739440673740	0.0031280518	
1739440673741	-0.0034332275	
1739440673742	-0.0012207031	
1739440673743	0.0074768066	
1739440673744	0.0045776367	
1739440673745	-2.2888184E-4	
1739440673746	1.5258789E-4	
1739440673747	-0.0038146973	
1739440673748	-0.0025177002	
1739440673749	0.0030517578	
1739440673750	-5.340576E-4	
1739440673751	7.6293945E-5	
1739440673752	0.001449585	
1739440673753	0.0023651123	
1739440673754	0.005264282	
1739440673755	5.340576E-4	
1739440673756	0.0019073486	
1739440673757	0.006790161	
1739440673758	0.0017547607	
1739440673759	0.001373291	
1739440673760	0.005340576	
1739440673761	-0.0019836426	
1739440673762	-0.004425049	
1739440673763	1.5258789E-4	
1739440673764	3.8146973E-4	
1739440673765	0.0035095215	
1739440673766	-0.0035095215	
1739440673767	-0.012893677	
1739440673768	-0.008468628	
1739440673769	-0.004501343	
1739440673770	-0.0022888184	
1739440673771	-0.0036621094	
1739440673772	-0.0074005127	
1739440673773	-0.005264282	
1739440673774	-9.1552734E-4	
1739440673775	-6.1035156E-4	
1739440673776	0.002822876	
1739440673777	0.005645752	
1739440673778	0.001373291	
1739440673779	0.0023651123	
1739440673780	0.002822876	
1739440673781	-0.0051116943	
1739440673782	0.0034332275	
1739440673783	0.006942749	
1739440673784	5.340576E-4	
1739440673785	0.0023651123	
1739440673786	0.00289917	
1739440673787	0.009002686	
1739440673788	0.005264282	
1739440673789	-0.0012969971	
1739440673790	0.0045776367	
1739440673791	-9.1552734E-4	
1739440673792	0.0018310547	
1739440673793	0.0029754639	
1739440673794	-0.012435913	
1739440673795	6.1035156E-4	
1739440673796	0.0146484375	
1739440673797	0.009841919	
1739440673798	0.0015258789	
1739440673799	-0.009384155	
1739440673800	-0.0061798096	
1739440673801	-0.004196167	
1739440673802	-0.0077056885	
1739440673803	-0.0074768066	
1739440673804	-0.008163452	
1739440673805	-5.340576E-4	
1739440673806	0.00541687	
1739440673807	0.0025177002	
1739440673808	0.007247925	
1739440673809	0.0077056885	
1739440673810	-7.6293945E-4	
1739440673811	0.0074768066	
1739440673812	0.00579834	
1739440673813	-0.016098022	
1739440673814	-0.019454956	
1739440673815	-0.01838684	
1739440673816	-0.017700195	
1739440673817	-0.0021362305	
1739440673818	0.008010864	
1739440673819	0.0074768066	
1739440673820	0.0035858154	
1739440673821	9.1552734E-4	
1739440673822	0.0037384033	
1739440673823	0.012588501	
1739440673824	0.015792847	
1739440673825	0.013961792	
1739440673826	0.017700195	
1739440673827	0.014038086	
1739440673828	0.0048065186	
1739440673829	0.010986328	
1739440673830	0.009994507	
1739440673831	7.6293945E-5	
1739440673832	0.0048065186	
1739440673833	0.0032043457	
1739440673834	-1.5258789E-4	
1739440673835	3.8146973E-4	
1739440673836	-0.005569458	
1739440673837	-0.011520386	
1739440673838	-0.021057129	
1739440673839	-0.023117065	
1739440673840	-0.01914978	
1739440673841	-0.013809204	
1739440673842	-0.0047302246	
1739440673843	-0.012741089	
1739440673844	-0.018463135	
1739440673845	-0.025939941	
1739440673846	-0.033340454	
1739440673847	-0.019836426	
1739440673848	-0.010299683	
1739440673849	-0.009536743	
1739440673850	0.0032806396	
1739440673851	0.0065612793	
1739440673852	0.009613037	
1739440673853	0.018157959	
1739440673854	0.018310547	
1739440673855	0.017089844	
1739440673856	0.020370483	
1739440673857	0.02204895	
1739440673858	0.01701355	
1739440673859	0.023269653	
1739440673860	0.02784729	
1739440673861	0.017547607	
1739440673862	0.0132751465	
1739440673863	0.011978149	
1739440673864	0.012969971	
1739440673865	0.016174316	
1739440673866	0.007858276	
1739440673867	-0.0010681152	
1739440673868	-0.0020599365	
1739440673869	-0.0023651123	
1739440673870	-0.0061035156	
1739440673871	-0.009460449	
1739440673872	-0.009841919	
1739440673873	-0.016021729	
1739440673874	-0.019302368	
1739440673875	-0.015945435	
1739440673876	-0.015182495	
1739440673877	-0.008544922	
1739440673878	-0.001373291	
1739440673879	-0.004501343	
1739440673880	-0.00831604	
1739440673881	-0.007171631	
1739440673882	-0.0022888184	
1739440673883	-0.0015258789	
1739440673884	-7.6293945E-4	
1739440673885	0.009307861	
1739440673886	0.012435913	
1739440673887	0.0063323975	
1739440673888	-0.005645752	
1739440673889	-0.017929077	
1739440673890	-0.007095337	
1739440673891	-0.0025177002	
1739440673892	-0.018463135	
1739440673893	-0.02128601	
1739440673894	-0.008468628	
1739440673895	0.008850098	
1739440673896	0.014724731	
1739440673897	0.012435913	
1739440673898	0.011978149	
1739440673899	0.006942749	
1739440673900	0.007171631	
1739440673901	0.013504028	
1739440673902	0.007858276	
1739440673903	-0.013122559	
1739440673904	-0.01914978	
1739440673905	-0.0075531006	
1739440673906	0.0025939941	
1739440673907	-0.0012207031	
1739440673908	0.001449585	
1739440673909	0.019836426	
1739440673910	0.019683838	
1739440673911	0.0119018555	
1739440673912	-0.001373291	
1739440673913	-0.0024414062	
1739440673914	0.0061035156	
1739440673915	-1.5258789E-4	
1739440673916	0.0045776367	
1739440673917	-0.0012969971	
1739440673918	-0.010299683	
1739440673919	4.5776367E-4	
1739440673920	0.00869751	
1739440673921	0.009841919	
1739440673922	-1.5258789E-4	
1739440673923	-0.011062622	
1739440673924	-0.009994507	
1739440673925	-0.009689331	
1739440673926	-0.011367798	
1739440673927	-0.0025939941	
1739440673928	9.1552734E-4	
1739440673929	-2.2888184E-4	
1739440673930	0.0048065186	
1739440673931	0.001373291	
1739440673932	-9.918213E-4	
1739440673933	0.005340576	
1739440673934	0.014419556	
1739440673935	0.013504028	
1739440673936	-0.008773804	
1739440673937	-0.043563843	
1739440673938	-0.05241394	
1739440673939	-0.023345947	
1739440673940	-0.001449585	
1739440673941	-0.0025177002	
1739440673942	0.001449585	
1739440673943	0.017852783	
1739440673944	0.023651123	
1739440673945	0.018997192	
1739440673946	0.021133423	
1739440673947	0.021972656	
1739440673948	0.018310547	
1739440673949	0.018081665	
1739440673950	0.010757446	
1739440673951	0.0061035156	
1739440673952	0.00793457	
1739440673953	0.0010681152	
1739440673954	-0.0022125244	
1739440673955	-0.0059509277	
1739440673956	-0.00793457	
1739440673957	0.010528564	
1739440673958	0.014953613	
1739440673959	0.0012207031	
1739440673960	0.0016784668	
1739440673961	0.005264282	
1739440673962	0.0062561035	
1739440673963	-0.01701355	
1739440673964	-0.069885254	
1739440673965	-0.074157715	
1739440673966	-0.04776001	
1739440673967	-0.05645752	
1739440673968	-0.018692017	
1739440673969	0.06752014	
1739440673970	0.119018555	
1739440673971	0.11802673	
1739440673972	0.040283203	
1739440673973	-0.02418518	
1739440673974	-0.014343262	
1739440673975	-0.026626587	
1739440673976	-0.037765503	
1739440673977	-0.029144287	
1739440673978	-0.036315918	
1739440673979	-0.03135681	
1739440673980	-0.031967163	
1739440673981	-0.017929077	
1739440673982	-0.010375977	
1739440673983	-0.016555786	
1739440673984	-0.009231567	
1739440673985	-0.011367798	
1739440673986	-0.0034332275	
1739440673987	0.003967285	
1739440673988	0.008468628	
1739440673989	0.025939941	
1739440673990	0.018539429	
1739440673991	0.018081665	
1739440673992	0.032577515	
1739440673993	0.024032593	
1739440673994	0.02128601	
1739440673995	0.01411438	
1739440673996	0.006866455	
1739440673997	0.025558472	
1739440673998	0.023117065	
1739440673999	0.010910034	
1739440674000	0.024337769	
1739440674001	0.021057129	
1739440674002	0.0048065186	
1739440674003	-0.013427734	
1739440674004	-0.022888184	
1739440674005	0.0076293945	
1739440674006	0.011291504	
1739440674007	-0.012435913	
1739440674008	-0.013122559	
1739440674009	-0.014572144	
1739440674010	-0.009994507	
1739440674011	-0.0038146973	
1739440674012	-0.012359619	
1739440674013	0.0018310547	
1739440674014	0.027542114	
1739440674015	0.030670166	
1739440674016	0.03440857	
1739440674017	0.009918213	
1739440674018	-0.02960205	
1739440674019	-0.04295349	
1739440674020	-0.0717926	
1739440674021	-0.09811401	
1739440674022	-0.105667114	
1739440674023	-0.13420105	
1739440674024	-0.1222229	
1739440674025	-0.015640259	
1739440674026	0.092926025	
1739440674027	0.17150879	
1739440674028	0.1638794	
1739440674029	0.0705719	
1739440674030	0.022354126	
1739440674031	6.866455E-4	
1739440674032	0.011749268	
1739440674033	0.035629272	
1739440674034	0.018920898	
1739440674035	0.002746582	
1739440674036	-0.020751953	
1739440674037	-0.029830933	
1739440674038	-0.004196167	
1739440674039	0.0021362305	
1739440674040	-0.012130737	
1739440674041	-0.020141602	
1739440674042	-0.023651123	
1739440674043	-0.023651123	
1739440674044	-0.016479492	
1739440674045	-0.005874634	
1739440674046	0.0061035156	
1739440674047	0.010910034	
1739440674048	-0.0061798096	
1739440674049	-0.014038086	
1739440674050	-0.0024414062	
1739440674051	0.015106201	
1739440674052	0.02746582	
1739440674053	0.0024414062	
1739440674054	-0.018081665	
1739440674055	3.8146973E-4	
1739440674056	0.017318726	
1739440674057	0.0059509277	
1739440674058	-0.02571106	
1739440674059	-0.03250122	
1739440674060	-0.013504028	
1739440674061	0.005645752	
1739440674062	0.016479492	
1739440674063	0.01449585	
1739440674064	0.008163452	
1739440674065	0.009307861	
1739440674066	0.010757446	
1739440674067	0.010299683	
1739440674068	-4.5776367E-4	
1739440674069	-0.04508972	
1739440674070	-0.04295349	
1739440674071	0.0073242188	
1739440674072	0.010604858	
1739440674073	-4.5776367E-4	
1739440674074	0.005340576	
1739440674075	0.016326904	
1739440674076	0.02784729	
1739440674077	0.022201538	
1739440674078	0.024642944	
1739440674079	0.038757324	
1739440674080	0.021362305	
1739440674081	-0.037612915	
1739440674082	-0.09208679	
1739440674083	-0.12634277	
1739440674084	-0.1538086	
1739440674085	-0.11886597	
1739440674086	0.015411377	
1739440674087	0.11329651	
1739440674088	0.07469177	
1739440674089	0.057144165	
1739440674090	0.12748718	
1739440674091	0.15930176	
1739440674092	0.21072388	
1739440674093	0.24482727	
1739440674094	0.13824463	
1739440674095	0.052490234	
1739440674096	-0.012207031	
1739440674097	-0.0869751	
1739440674098	-0.08308411	
1739440674099	-0.124435425	
1739440674100	-0.15556335	
1739440674101	-0.13153076	
1739440674102	-0.14015198	
1739440674103	-0.12504578	
1739440674104	-0.11039734	
1739440674105	-0.09490967	
1739440674106	-0.06668091	
1739440674107	-0.05569458	
1739440674108	-0.034713745	
1739440674109	-0.008773804	
1739440674110	0.01411438	
1739440674111	0.023651123	
1739440674112	0.021438599	
1739440674113	0.03845215	
1739440674114	0.051193237	
1739440674115	0.03845215	
1739440674116	0.031661987	
1739440674117	0.027770996	
1739440674118	0.026016235	
1739440674119	0.046920776	
1739440674120	0.051651	
1739440674121	0.049972534	
1739440674122	0.041809082	
1739440674123	0.028686523	
1739440674124	0.051727295	
1739440674125	0.052490234	
1739440674126	0.027542114	
1739440674127	0.018997192	
1739440674128	0.020065308	
1739440674129	0.028686523	
1739440674130	0.016784668	
1739440674131	-0.006790161	
1739440674132	-0.025863647	
1739440674133	-0.04119873	
1739440674134	-0.022506714	
1739440674135	-0.004043579	
1739440674136	-0.011520386	
1739440674137	-0.012435913	
1739440674138	-0.02204895	
1739440674139	-0.02128601	
1739440674140	0.0051116943	
1739440674141	-0.0037384033	
1739440674142	-0.030822754	
1739440674143	-0.05470276	
1739440674144	-0.06996155	
1739440674145	-0.045394897	
1739440674146	-0.027999878	
1739440674147	-0.011138916	
1739440674148	0.029296875	
1739440674149	0.04989624	
1739440674150	0.047683716	
1739440674151	0.042037964	
1739440674152	0.040359497	
1739440674153	0.01625061	
1739440674154	-0.027542114	
1739440674155	-0.013427734	
1739440674156	0.021820068	
1739440674157	-0.024642944	
1739440674158	-0.084609985	
1739440674159	-0.10185242	
1739440674160	-0.048446655	
1739440674161	0.055160522	
1739440674162	0.07102966	
1739440674163	0.026779175	
1739440674164	-0.011444092	
1739440674165	-0.01411438	
1739440674166	0.01083374	
1739440674167	0.02029419	
1739440674168	0.053100586	
1739440674169	0.04837036	
1739440674170	0.023956299	
1739440674171	0.023727417	
1739440674172	0.0019073486	
1739440674173	0.007858276	
1739440674174	0.017166138	
1739440674175	-6.1035156E-4	
1739440674176	-0.016098022	
1739440674177	-0.030899048	
1739440674178	-0.018005371	
1739440674179	-0.015411377	
1739440674180	-0.026855469	
1739440674181	-0.025405884	
1739440674182	-0.066223145	
1739440674183	-0.0730896	
1739440674184	-0.002670288	
1739440674185	0.052108765	
1739440674186	0.08293152	
1739440674187	0.069732666	
1739440674188	0.014724731	
1739440674189	-0.008621216	
1739440674190	-0.0029754639	
1739440674191	0.005645752	
1739440674192	-0.0030517578	
1739440674193	-0.055541992	
1739440674194	-0.13282776	
1739440674195	-0.10505676	
1739440674196	0.047302246	
1739440674197	0.11512756	
1739440674198	0.117492676	
1739440674199	0.098724365	
1739440674200	0.009384155	
1739440674201	-0.04562378	
1739440674202	-0.031585693	
1739440674203	0.010681152	
1739440674204	0.009689331	
1739440674205	-0.04776001	
1739440674206	-0.15014648	
1739440674207	-0.19317627	
1739440674208	-0.023422241	
1739440674209	0.13565063	
1739440674210	0.15899658	
1739440674211	0.15518188	
1739440674212	0.069503784	
1739440674213	-0.060195923	
1739440674214	-0.084991455	
1739440674215	-0.08605957	
1739440674216	-0.13412476	
1739440674217	-0.072021484	
1739440674218	0.055389404	
1739440674219	0.14282227	
1739440674220	0.15899658	
1739440674221	0.0466156	
1739440674222	-0.002670288	
1739440674223	0.028381348	
1739440674224	-0.0051116943	
1739440674225	0.028457642	
1739440674226	0.05706787	
1739440674227	0.017547607	
1739440674228	-0.057296753	
1739440674229	-0.1586914	
1739440674230	-0.09857178	
1739440674231	0.0046539307	
1739440674232	0.018463135	
1739440674233	0.018615723	
1739440674234	-0.03303528	
1739440674235	-0.060424805	
1739440674236	-0.059890747	
1739440674237	-0.079956055	
1739440674238	-0.06454468	
1739440674239	-0.01373291	
1739440674240	0.041122437	
1739440674241	0.04737854	
1739440674242	0.024490356	
1739440674243	-0.034866333	
1739440674244	-0.12382507	
1739440674245	-3.0517578E-4	
1739440674246	0.2444458	
1739440674247	0.29067993	
1739440674248	0.23750305	
1739440674249	0.047073364	
1739440674250	-0.2420044	
1739440674251	-0.36636353	
1739440674252	-0.39596558	
1739440674253	-0.2508545	
1739440674254	0.05683899	
1739440674255	0.25032043	
1739440674256	0.2886963	
1739440674257	0.29052734	
1739440674258	0.29685974	
1739440674259	0.17341614	
1739440674260	0.07659912	
1739440674261	0.06492615	
1739440674262	-0.00869751	
1739440674263	-0.020828247	
1739440674264	-0.00869751	
1739440674265	-0.06149292	
1739440674266	-0.14305115	
1739440674267	-0.2192688	
1739440674268	-0.22521973	
1739440674269	-0.17463684	
1739440674270	-0.10307312	
1739440674271	-0.061645508	
1739440674272	-0.062026978	
1739440674273	-0.022201538	
1739440674274	0.019836426	
1739440674275	0.005722046	
1739440674276	-0.059509277	
1739440674277	-0.08766174	
1739440674278	0.015411377	
1739440674279	0.106277466	
1739440674280	0.101242065	
1739440674281	0.10597229	
1739440674282	0.12275696	
1739440674283	0.08491516	
1739440674284	0.051879883	
1739440674285	0.048980713	
1739440674286	0.02670288	
1739440674287	0.0019073486	
1739440674288	-0.01159668	
1739440674289	-0.0076293945	
1739440674290	-0.02128601	
1739440674291	-0.019989014	
1739440674292	0.025024414	
1739440674293	0.01449585	
1739440674294	-0.020904541	
1739440674295	-0.034713745	
1739440674296	-0.018005371	
1739440674297	0.03593445	
1739440674298	0.012969971	
1739440674299	-0.07476807	
1739440674300	-0.075149536	
1739440674301	-0.020141602	
1739440674302	-0.008010864	
1739440674303	-0.006713867	
1739440674304	0.013809204	
1739440674305	0.023117065	
1739440674306	0.02960205	
1739440674307	0.020828247	
1739440674308	0.0061035156	
1739440674309	0.029373169	
1739440674310	0.047073364	
1739440674311	0.04585266	
1739440674312	0.015411377	
1739440674313	-0.082092285	
1739440674314	-0.16174316	
1739440674315	-0.10902405	
1739440674316	-0.05393982	
1739440674317	-0.060806274	
1739440674318	0.016326904	
1739440674319	0.09597778	
1739440674320	0.12298584	
1739440674321	0.060424805	
1739440674322	-0.20271301	
1739440674323	-0.35980225	
1739440674324	-0.12802124	
1739440674325	0.27687073	
1739440674326	0.467453	
1739440674327	0.47164917	
1739440674328	0.3630066	
1739440674329	0.06324768	
1739440674330	-0.11306763	
1739440674331	-0.15724182	
1739440674332	-0.29899597	
1739440674333	-0.38146973	
1739440674334	-0.25932312	
1739440674335	0.03387451	
1739440674336	0.20439148	
1739440674337	0.19371033	
1739440674338	0.15548706	
1739440674339	0.051574707	
1739440674340	-0.046310425	
1739440674341	-0.11680603	
1739440674342	-0.12359619	
1739440674343	-0.04928589	
1739440674344	-0.069885254	
1739440674345	-0.096588135	
1739440674346	-0.06034851	
1739440674347	-0.06340027	
1739440674348	-0.04135132	
1739440674349	-0.014801025	
1739440674350	-0.015563965	
1739440674351	-0.0022888184	
1739440674352	-0.008544922	
1739440674353	-0.010604858	
1739440674354	0.015106201	
1739440674355	0.038146973	
1739440674356	0.037231445	
1739440674357	0.035629272	
1739440674358	0.0655365	
1739440674359	0.08079529	
1739440674360	0.07194519	
1739440674361	0.070877075	
1739440674362	0.021438599	
1739440674363	-0.03036499	
1739440674364	0.0038909912	
1739440674365	0.0415802	
1739440674366	0.03715515	
1739440674367	-0.04058838	
1739440674368	-0.10040283	
1739440674369	-0.0029754639	
1739440674370	0.07850647	
1739440674371	0.050125122	
1739440674372	0.03501892	
1739440674373	0.03074646	
1739440674374	-0.006942749	
1739440674375	-0.008163452	
1739440674376	0.022888184	
1739440674377	0.0075531006	
1739440674378	-0.01739502	
1739440674379	-0.017471313	
1739440674380	-0.027160645	
1739440674381	-0.027542114	
1739440674382	-0.018692017	
1739440674383	-0.027313232	
1739440674384	-0.029907227	
1739440674385	-0.015640259	
1739440674386	0.014190674	
1739440674387	0.0046539307	
1739440674388	-0.060043335	
1739440674389	-0.0843811	
1739440674390	-0.043563843	
1739440674391	0.015792847	
1739440674392	0.04219055	
1739440674393	0.0023651123	
1739440674394	-0.06706238	
1739440674395	-0.06881714	
1739440674396	0.011062622	
1739440674397	0.053100586	
1739440674398	0.04585266	
1739440674399	0.024032593	
1739440674400	0.023498535	
1739440674401	0.053024292	
1739440674402	0.045776367	
1739440674403	0.018615723	
1739440674404	-0.009155273	
1739440674405	0.001373291	
1739440674406	0.024719238	
1739440674407	0.0076293945	
1739440674408	-0.016479492	
1739440674409	-0.019760132	
1739440674410	0.021514893	
1739440674411	0.021820068	
1739440674412	-0.01625061	
1739440674413	-0.022201538	
1739440674414	-0.041809082	
1739440674415	-0.025482178	
1739440674416	-0.0073242188	
1739440674417	-0.014190674	
1739440674418	0.024795532	
1739440674419	0.021057129	
1739440674420	0.007247925	
1739440674421	0.018920898	
1739440674422	-0.0049591064	
1739440674423	-0.0023651123	
1739440674424	0.0051116943	
1739440674425	-0.0073242188	
1739440674426	-0.013198853	
1739440674427	-0.01914978	
1739440674428	-0.014801025	
1739440674429	0.011367798	
1739440674430	0.046310425	
1739440674431	0.03440857	
1739440674432	-0.0119018555	
1739440674433	-0.05531311	
1739440674434	-0.048065186	
1739440674435	0.0025939941	
1739440674436	0.0025939941	
1739440674437	0.0032806396	
1739440674438	0.022125244	
1739440674439	-0.01449585	
1739440674440	-0.023040771	
1739440674441	0.022506714	
1739440674442	0.018157959	
1739440674443	0.00793457	
1739440674444	0.01991272	
1739440674445	0.007247925	
1739440674446	0.008010864	
1739440674447	0.0048828125	
1739440674448	-0.0051879883	
1739440674449	-0.0020599365	
1739440674450	-0.0062561035	
1739440674451	7.6293945E-4	
1739440674452	0.0025939941	
1739440674453	-0.005264282	
1739440674454	-0.0032043457	
1739440674455	-0.0025177002	
1739440674456	0.004272461	
1739440674457	0.004119873	
1739440674458	-0.0051116943	
1739440674459	-0.016326904	
1739440674460	-0.025787354	
1739440674461	0.0016784668	
1739440674462	0.015411377	
1739440674463	-0.0036621094	
1739440674464	0.004348755	
1739440674465	0.002670288	
1739440674466	-0.003967285	
1739440674467	0.00793457	
1739440674468	0.002822876	
1739440674469	-0.0016021729	
1739440674470	0.0025939941	
1739440674471	0.002670288	
1739440674472	0.002822876	
1739440674473	3.0517578E-4	
1739440674474	-0.0030517578	
1739440674475	-0.0020599365	
1739440674476	6.866455E-4	
1739440674477	0.0031280518	
1739440674478	0.0048065186	
1739440674479	-0.0033569336	
1739440674480	-0.008773804	
1739440674481	-0.0019073486	
1739440674482	-9.1552734E-4	
1739440674483	2.2888184E-4	
1739440674484	0.0010681152	
1739440674485	5.340576E-4	
1739440674486	0.004196167	
1739440674487	-0.0024414062	
1739440674488	-0.0029754639	
1739440674489	-7.6293945E-4	
1739440674490	-0.004425049	
1739440674491	7.6293945E-4	
1739440674492	-0.0019073486	
1739440674493	-0.0022888184	
1739440674494	0.0050354004	
1739440674495	0.004196167	
1739440674496	0.0051116943	
1739440674497	-0.001449585	
1739440674498	-0.00793457	
1739440674499	0.0023651123	
1739440674500	0.0034332275	
1739440674501	0.001373291	
1739440674502	0.004272461	
1739440674503	4.5776367E-4	
1739440674504	0.001449585	
1739440674505	-6.866455E-4	
1739440674506	7.6293945E-4	
1739440674507	0.007095337	
1739440674508	0.0038909912	
1739440674509	0.005569458	
1739440674510	0.0075531006	
1739440674511	0.004425049	
1739440674512	0.0010681152	
1739440674513	0.0036621094	
1739440674514	0.0074005127	
1739440674515	0.0025939941	
1739440674516	-2.2888184E-4	
1739440674517	-0.00289917	
1739440674518	-0.005493164	
1739440674519	-0.005874634	
1739440674520	-0.012207031	
1739440674521	-0.014572144	
1739440674522	-0.013656616	
1739440674523	-0.01083374	
1739440674524	-0.0051879883	
1739440674525	-0.011672974	
1739440674526	-0.0077819824	
1739440674527	0.0016021729	
1739440674528	-0.0030517578	
1739440674529	1.5258789E-4	
1739440674530	0.002822876	
1739440674531	0.0034332275	
1739440674532	0.011444092	
1739440674533	0.013961792	
1739440674534	0.010757446	
1739440674535	0.0104522705	
1739440674536	0.014572144	
1739440674537	0.01449585	
1739440674538	0.0037384033	
1739440674539	-0.0074768066	
1739440674540	-0.009689331	
1739440674541	-0.009536743	
1739440674542	-0.009460449	
1739440674543	-0.004425049	
1739440674544	-0.004043579	
1739440674545	-0.004348755	
1739440674546	-0.0051879883	
1739440674547	-0.009613037	
1739440674548	-0.0063323975	
1739440674549	-0.0022888184	
1739440674550	0.004119873	
1739440674551	0.008544922	
1739440674552	-5.340576E-4	
1739440674553	-0.005264282	
1739440674554	0.001449585	
1739440674555	0.00289917	
1739440674556	-0.0019836426	
1739440674557	0.0015258789	
1739440674558	0.004043579	
1739440674559	9.918213E-4	
1739440674560	0.004119873	
1739440674561	0.008544922	
1739440674562	0.008239746	
1739440674563	0.015945435	
1739440674564	0.027008057	
1739440674565	0.01953125	
1739440674566	0.01121521	
1739440674567	0.01701355	
1739440674568	0.013504028	
1739440674569	-0.0032043457	
1739440674570	-0.018310547	
1739440674571	-0.013961792	
1739440674572	-0.010375977	
1739440674573	-0.011978149	
1739440674574	-0.0031280518	
1739440674575	-0.001373291	
1739440674576	-0.00579834	
1739440674577	-0.010986328	
1739440674578	-0.013809204	
1739440674579	-0.013427734	
1739440674580	-0.014572144	
1739440674581	-0.018539429	
1739440674582	-0.02204895	
1739440674583	-0.021591187	
1739440674584	-0.021057129	
1739440674585	-0.019073486	
1739440674586	-0.0118255615	
1739440674587	-0.005493164	
1739440674588	-0.009460449	
1739440674589	-0.013427734	
1739440674590	-0.005340576	
1739440674591	-0.0033569336	
1739440674592	2.2888184E-4	
1739440674593	0.011062622	
1739440674594	0.018234253	
1739440674595	0.030288696	
1739440674596	0.029373169	
1739440674597	0.020370483	
1739440674598	0.025482178	
1739440674599	0.027160645	
1739440674600	0.03265381	
1739440674601	0.0390625	
1739440674602	0.034484863	
1739440674603	0.02998352	
1739440674604	0.025863647	
1739440674605	0.018997192	
1739440674606	0.010375977	
1739440674607	0.0025939941	
1739440674608	-0.00541687	
1739440674609	-0.015335083	
1739440674610	-0.015258789	
1739440674611	-0.0032043457	
1739440674612	-0.0061798096	
1739440674613	-0.013809204	
1739440674614	-0.011062622	
1739440674615	-0.018157959	
1739440674616	-0.016098022	
1739440674617	-0.014419556	
1739440674618	-0.022964478	
1739440674619	-0.017089844	
1739440674620	-0.016403198	
1739440674621	-0.009994507	
1739440674622	-6.866455E-4	
1739440674623	-0.0073242188	
1739440674624	-0.009994507	
1739440674625	-0.020828247	
1739440674626	-0.024414062	
1739440674627	-0.011520386	
1739440674628	-0.009613037	
1739440674629	-0.005340576	
1739440674630	0.007019043	
1739440674631	0.0062561035	
1739440674632	0.008773804	
1739440674633	0.008087158	
1739440674634	0.008850098	
1739440674635	0.008621216	
1739440674636	0.007171631	
1739440674637	0.009231567	
1739440674638	0.004196167	
1739440674639	-0.001449585	
1739440674640	-0.004043579	
1739440674641	3.8146973E-4	
1739440674642	0.0016784668	
1739440674643	-0.0049591064	
1739440674644	-0.006713867	
1739440674645	-0.0076293945	
1739440674646	-0.019683838	
1739440674647	-0.015563965	
1739440674648	-0.016403198	
1739440674649	-0.030059814	
1739440674650	-0.025863647	
1739440674651	-0.01739502	
1739440674652	-0.007095337	
1739440674653	0.0021362305	
1739440674654	0.008239746	
1739440674655	0.01335144	
1739440674656	0.019836426	
1739440674657	0.026245117	
1739440674658	0.02670288	
1739440674659	0.031280518	
1739440674660	0.035247803	
1739440674661	0.036849976	
1739440674662	0.039901733	
1739440674663	0.036621094	
1739440674664	0.029907227	
1739440674665	0.023040771	
1739440674666	0.015411377	
1739440674667	0.013809204	
1739440674668	0.01449585	
1739440674669	0.01121521	
1739440674670	0.0030517578	
1739440674671	-0.004272461	
1739440674672	-0.010986328	
1739440674673	-0.020523071	
1739440674674	-0.020980835	
1739440674675	-0.023727417	
1739440674676	-0.030212402	
1739440674677	-0.032196045	
1739440674678	-0.030899048	
1739440674679	-0.024490356	
1739440674680	-0.023498535	
1739440674681	-0.022735596	
1739440674682	-0.020751953	
1739440674683	-0.021209717	
1739440674684	-0.020751953	
1739440674685	-0.018234253	
1739440674686	-0.012512207	
1739440674687	-0.008239746	
1739440674688	-0.0036621094	
1739440674689	-0.0036621094	
1739440674690	0.0	
1739440674691	0.0035095215	
1739440674692	0.006713867	
1739440674693	0.022354126	
1739440674694	0.027770996	
1739440674695	0.030288696	
1739440674696	0.03364563	
1739440674697	0.03074646	
1739440674698	0.035476685	
1739440674699	0.037002563	
1739440674700	0.03326416	
1739440674701	0.020828247	
1739440674702	0.017929077	
1739440674703	0.014877319	
1739440674704	0.001373291	
1739440674705	-0.0033569336	
1739440674706	-0.016708374	
1739440674707	-0.019073486	
1739440674708	-0.016708374	
1739440674709	-0.024490356	
1739440674710	-0.021438599	
1739440674711	-0.021591187	
1739440674712	-0.02067566	
1739440674713	-0.019607544	
1739440674714	-0.023727417	
1739440674715	-0.01838684	
1739440674716	-0.020446777	
1739440674717	-0.020523071	
1739440674718	-0.012283325	
1739440674719	-0.01335144	
1739440674720	-0.008239746	
1739440674721	-0.0020599365	
1739440674722	-0.0047302246	
1739440674723	-0.0035858154	
1739440674724	-9.1552734E-4	
1739440674725	0.002670288	
1739440674726	0.009384155	
1739440674727	0.009613037	
1739440674728	0.0022125244	
1739440674729	0.0061035156	
1739440674730	0.006942749	
1739440674731	0.009765625	
1739440674732	0.012969971	
1739440674733	0.011749268	
1739440674734	0.019454956	
1739440674735	0.020523071	
1739440674736	0.012817383	
1739440674737	0.017089844	
1739440674738	0.016555786	
1739440674739	0.00793457	
1739440674740	0.012588501	
1739440674741	0.010528564	
1739440674742	8.392334E-4	
1739440674743	0.0051116943	
1739440674744	9.1552734E-4	
1739440674745	-0.0051116943	
1739440674746	-0.003967285	
1739440674747	-7.6293945E-4	
1739440674748	0.0033569336	
1739440674749	9.1552734E-4	
1739440674750	-0.008010864	
1739440674751	-0.011138916	
1739440674752	-0.009841919	
1739440674753	-0.0066375732	
1739440674754	-0.005645752	
1739440674755	-0.00831604	
1739440674756	-0.012283325	
1739440674757	-0.0076293945	
1739440674758	-0.0034332275	
1739440674759	-0.0036621094	
1739440674760	-0.002822876	
1739440674761	0.0012969971	
1739440674762	0.0031280518	
1739440674763	-0.0031280518	
1739440674764	-0.0045776367	
1739440674765	-0.010528564	
1739440674766	-0.011672974	
1739440674767	-0.0037384033	
1739440674768	-0.002670288	
1739440674769	0.0025177002	
1739440674770	0.010223389	
1739440674771	0.008239746	
1739440674772	0.020141602	
1739440674773	0.016098022	
1739440674774	0.0034332275	
1739440674775	0.007019043	
1739440674776	0.010528564	
1739440674777	0.010070801	
1739440674778	0.005645752	
1739440674779	0.0063323975	
1739440674780	0.009765625	
1739440674781	0.0034332275	
1739440674782	-0.002822876	
1739440674783	-2.2888184E-4	
1739440674784	0.0045776367	
1739440674785	0.0046539307	
1739440674786	0.0036621094	
1739440674787	-9.1552734E-4	
1739440674788	-0.012054443	
1739440674789	-0.016937256	
1739440674790	-0.015716553	
1739440674791	-0.015106201	
1739440674792	-0.011367798	
1739440674793	-0.008621216	
1739440674794	-0.0023651123	
1739440674795	-0.010223389	
1739440674796	-0.012741089	
1739440674797	-0.0018310547	
1739440674798	-0.0076293945	
1739440674799	-0.00831604	
1739440674800	-0.010528564	
1739440674801	-0.01449585	
1739440674802	-0.0090789795	
1739440674803	-0.004501343	
1739440674804	0.0045776367	
1739440674805	0.0019836426	
1739440674806	-0.004348755	
1739440674807	0.0022888184	
1739440674808	-1.5258789E-4	
1739440674809	-3.8146973E-4	
1739440674810	-0.0022888184	
1739440674811	-0.008850098	
1739440674812	0.0037384033	
1739440674813	0.010681152	
1739440674814	0.0064086914	
1739440674815	0.014953613	
1739440674816	0.02319336	
1739440674817	0.025482178	
1739440674818	0.021209717	
1739440674819	0.01159668	
1739440674820	0.013580322	
1739440674821	0.021514893	
1739440674822	0.022506714	
1739440674823	0.017929077	
1739440674824	0.013122559	
1739440674825	0.00831604	
1739440674826	0.0048065186	
1739440674827	0.0048065186	
1739440674828	9.918213E-4	
1739440674829	-0.004425049	
1739440674830	-0.0010681152	
1739440674831	-0.0016784668	
1739440674832	-0.008926392	
1739440674833	-0.011444092	
1739440674834	-0.01701355	
1739440674835	-0.026550293	
1739440674836	-0.029525757	
1739440674837	-0.02128601	
1739440674838	-0.004501343	
1739440674839	0.005722046	
1739440674840	0.012893677	
1739440674841	-3.0517578E-4	
1739440674842	-0.028152466	
1739440674843	-0.030517578	
1739440674844	-0.018234253	
1739440674845	-0.0051116943	
1739440674846	-3.0517578E-4	
1739440674847	-0.0033569336	
1739440674848	-7.6293945E-4	
1739440674849	-0.002670288	
1739440674850	-0.005645752	
1739440674851	-9.1552734E-4	
1739440674852	0.004348755	
1739440674853	0.005645752	
1739440674854	0.0038909912	
1739440674855	0.004043579	
1739440674856	0.0030517578	
1739440674857	0.010910034	
1739440674858	0.012054443	
1739440674859	0.0074768066	
1739440674860	0.0073242188	
1739440674861	-0.0011444092	
1739440674862	-0.0022888184	
1739440674863	0.0033569336	
1739440674864	0.0104522705	
1739440674865	0.016326904	
1739440674866	0.009994507	
1739440674867	0.001449585	
1739440674868	0.0050354004	
1739440674869	-0.0038909912	
1739440674870	-0.017242432	
1739440674871	-0.006866455	
1739440674872	-2.2888184E-4	
1739440674873	-0.0047302246	
1739440674874	0.0017547607	
1739440674875	0.004501343	
1739440674876	9.918213E-4	
1739440674877	0.0065612793	
1739440674878	0.005722046	
1739440674879	0.0020599365	
1739440674880	0.0062561035	
1739440674881	0.0038146973	
1739440674882	0.001449585	
1739440674883	0.0060272217	
1739440674884	0.001449585	
1739440674885	0.0024414062	
1739440674886	0.010604858	
1739440674887	0.008392334	
1739440674888	0.00869751	
1739440674889	0.009536743	
1739440674890	0.0060272217	
1739440674891	0.008392334	
1739440674892	0.010910034	
1739440674893	-0.002746582	
1739440674894	-0.016708374	
1739440674895	-0.008468628	
1739440674896	-0.0019836426	
1739440674897	-0.005493164	
1739440674898	-0.011138916	
1739440674899	-0.015716553	
1739440674900	-0.0146484375	
1739440674901	-0.029373169	
1739440674902	-0.034179688	
1739440674903	-0.017318726	
1739440674904	-0.01121521	
1739440674905	-0.006713867	
1739440674906	0.0017547607	
1739440674907	-6.866455E-4	
1739440674908	-0.008468628	
1739440674909	7.6293945E-4	
1739440674910	0.0064086914	
1739440674911	0.0035095215	
1739440674912	0.0037384033	
1739440674913	0.0011444092	
1739440674914	-0.0047302246	
1739440674915	-0.004196167	
1739440674916	0.0036621094	
1739440674917	0.013504028	
1739440674918	0.018920898	
1739440674919	0.013961792	
1739440674920	0.010604858	
1739440674921	0.012054443	
1739440674922	0.018844604	
1739440674923	0.022277832	
1739440674924	0.019226074	
1739440674925	0.01991272	
1739440674926	0.02067566	
1739440674927	0.017852783	
1739440674928	0.008010864	
1739440674929	0.005340576	
1739440674930	0.0037384033	
1739440674931	-0.010986328	
1739440674932	-0.022201538	
1739440674933	-0.024490356	
1739440674934	-0.019836426	
1739440674935	-0.015258789	
1739440674936	-0.016403198	
1739440674937	-0.018539429	
1739440674938	-0.01838684	
1739440674939	-0.013809204	
1739440674940	-0.006790161	
1739440674941	0.0048065186	
1739440674942	0.011672974	
1739440674943	-0.004043579	
1739440674944	-0.020599365	
1739440674945	-0.025253296	
1739440674946	-0.028152466	
1739440674947	-0.020828247	
1739440674948	-0.0048065186	
1739440674949	0.005645752	
1739440674950	0.008087158	
1739440674951	0.013504028	
1739440674952	0.018539429	
1739440674953	0.023269653	
1739440674954	0.02708435	
1739440674955	0.02746582	
1739440674956	0.032043457	
1739440674957	0.02861023	
1739440674958	0.024642944	
1739440674959	0.022964478	
1739440674960	0.009155273	
1739440674961	-0.002822876	
1739440674962	-0.00793457	
1739440674963	-0.008163452	
1739440674964	0.0050354004	
1739440674965	0.018463135	
1739440674966	0.011749268	
1739440674967	0.0019073486	
1739440674968	-0.0032043457	
1739440674969	-0.012512207	
1739440674970	-0.0146484375	
1739440674971	-0.012207031	
1739440674972	-0.012588501	
1739440674973	-0.017547607	
1739440674974	-0.028533936	
1739440674975	-0.026779175	
1739440674976	-0.0119018555	
1739440674977	-0.017623901	
1739440674978	-0.029754639	
1739440674979	-0.026931763	
1739440674980	-0.03677368	
1739440674981	-0.03753662	
1739440674982	-0.013427734	
1739440674983	-0.0034332275	
1739440674984	-6.866455E-4	
1739440674985	0.020751953	
1739440674986	0.04447937	
1739440674987	0.041809082	
1739440674988	0.015335083	
1739440674989	-0.0119018555	
1739440674990	4.5776367E-4	
1739440674991	0.046157837	
1739440674992	0.067596436	
1739440674993	0.050735474	
1739440674994	0.015335083	
1739440674995	0.015258789	
1739440674996	0.030517578	
1739440674997	0.00793457	
1739440674998	0.0029754639	
1739440674999	0.008544922	
1739440675000	-0.0060272217	
1739440675001	-0.032958984	
1739440675002	-0.06324768	
1739440675003	-0.070114136	
1739440675004	-0.06942749	
1739440675005	-0.06187439	
1739440675006	-0.053634644	
1739440675007	-0.049743652	
1739440675008	-0.035858154	
1739440675009	-0.012512207	
1739440675010	0.023117065	
1739440675011	0.048294067	
1739440675012	0.028305054	
1739440675013	-0.0019836426	
1739440675014	0.0075531006	
1739440675015	0.03303528	
1739440675016	0.047607422	
1739440675017	0.061035156	
1739440675018	0.05317688	
1739440675019	0.03768921	
1739440675020	0.044326782	
1739440675021	0.03715515	
1739440675022	0.026626587	
1739440675023	0.020751953	
1739440675024	0.019760132	
1739440675025	0.011520386	
1739440675026	-0.018844604	
1739440675027	-0.018539429	
1739440675028	-0.02456665	
1739440675029	-0.04310608	
1739440675030	-0.03227234	
1739440675031	-0.03501892	
1739440675032	-0.025863647	
1739440675033	-0.013656616	
1739440675034	-0.027389526	
1739440675035	-0.030136108	
1739440675036	-0.022964478	
1739440675037	-0.0035095215	
1739440675038	0.01449585	
1739440675039	0.018234253	
1739440675040	0.023422241	
1739440675041	0.029754639	
1739440675042	0.040359497	
1739440675043	0.037002563	
1739440675044	0.01586914	
1739440675045	0.009155273	
1739440675046	0.0076293945	
1739440675047	0.0047302246	
1739440675048	-0.0023651123	
1739440675049	-0.0119018555	
1739440675050	-0.026473999	
1739440675051	-0.03189087	
1739440675052	-0.005874634	
1739440675053	1.5258789E-4	
1739440675054	-0.019302368	
1739440675055	-0.03173828	
1739440675056	-0.040283203	
1739440675057	-0.038909912	
1739440675058	-0.03677368	
1739440675059	-0.02861023	
1739440675060	-0.016784668	
1739440675061	-0.018463135	
1739440675062	-0.020980835	
1739440675063	-0.009613037	
1739440675064	0.009231567	
1739440675065	0.024719238	
1739440675066	0.040283203	
1739440675067	0.025939941	
1739440675068	-0.026245117	
1739440675069	-0.038223267	
1739440675070	-0.0062561035	
1739440675071	0.012969971	
1739440675072	0.032196045	
1739440675073	0.065078735	
1739440675074	0.07385254	
1739440675075	0.054092407	
1739440675076	0.053710938	
1739440675077	0.054855347	
1739440675078	0.03715515	
1739440675079	-0.027313232	
1739440675080	-0.07362366	
1739440675081	-0.027160645	
1739440675082	-0.016326904	
1739440675083	-0.018997192	
1739440675084	0.0049591064	
1739440675085	-0.0048065186	
1739440675086	0.00289917	
1739440675087	-0.010147095	
1739440675088	-0.017089844	
1739440675089	5.340576E-4	
1739440675090	-0.026397705	
1739440675091	-0.043029785	
1739440675092	-0.04043579	
1739440675093	-0.016937256	
1739440675094	0.060806274	
1739440675095	0.12634277	
1739440675096	0.1234436	
1739440675097	0.051651	
1739440675098	-0.015106201	
1739440675099	-0.019836426	
1739440675100	-0.022964478	
1739440675101	-0.017700195	
1739440675102	-0.0047302246	
1739440675103	-0.036392212	
1739440675104	-0.061645508	
1739440675105	-0.04714966	
1739440675106	-0.025177002	
1739440675107	-0.010681152	
1739440675108	-0.0050354004	
1739440675109	-0.01777649	
1739440675110	-0.039215088	
1739440675111	-0.043182373	
1739440675112	-0.037612915	
1739440675113	-0.046691895	
1739440675114	-0.03135681	
1739440675115	0.02067566	
1739440675116	0.04257202	
1739440675117	0.04043579	
1739440675118	0.04020691	
1739440675119	0.027008057	
1739440675120	0.027770996	
1739440675121	0.032424927	
1739440675122	0.018157959	
1739440675123	0.015029907	
1739440675124	0.011672974	
1739440675125	0.009460449	
1739440675126	0.021820068	
1739440675127	0.020217896	
1739440675128	0.0075531006	
1739440675129	-0.004501343	
1739440675130	-0.01953125	
1739440675131	-0.03387451	
1739440675132	-0.025634766	
1739440675133	-0.014953613	
1739440675134	-0.021057129	
1739440675135	-0.013122559	
1739440675136	-0.015716553	
1739440675137	0.0048065186	
1739440675138	0.021209717	
1739440675139	-0.02708435	
1739440675140	-0.039520264	
1739440675141	-0.013809204	
1739440675142	0.0019073486	
1739440675143	0.008087158	
1739440675144	-0.014190674	
1739440675145	-0.011749268	
1739440675146	0.010910034	
1739440675147	0.030670166	
1739440675148	0.041503906	
1739440675149	-0.015716553	
1739440675150	-0.084991455	
1739440675151	-0.07621765	
1739440675152	-0.043029785	
1739440675153	0.006713867	
1739440675154	0.11413574	
1739440675155	0.14053345	
1739440675156	0.10719299	
1739440675157	0.12313843	
1739440675158	0.07575989	
1739440675159	-0.013122559	
1739440675160	-0.04547119	
1739440675161	-0.08415222	
1739440675162	-0.10910034	
1739440675163	-0.06896973	
1739440675164	-0.038757324	
1739440675165	-0.004348755	
1739440675166	0.056762695	
1739440675167	0.12786865	
1739440675168	0.15098572	
1739440675169	0.107421875	
1739440675170	0.056991577	
1739440675171	-0.007858276	
1739440675172	-0.04951477	
1739440675173	-0.06011963	
1739440675174	-0.07316589	
1739440675175	-0.08224487	
1739440675176	-0.0831604	
1739440675177	-0.06866455	
1739440675178	-0.07133484	
1739440675179	-0.08552551	
1739440675180	-0.09597778	
1739440675181	-0.07858276	
1739440675182	-0.028762817	
1739440675183	-0.0064086914	
1739440675184	-0.002822876	
1739440675185	-0.0031280518	
1739440675186	-0.012969971	
1739440675187	-0.0059509277	
1739440675188	0.0049591064	
1739440675189	0.02784729	
1739440675190	0.05996704	
1739440675191	0.044708252	
1739440675192	0.02571106	
1739440675193	0.041427612	
1739440675194	0.033111572	
1739440675195	0.030136108	
1739440675196	0.03303528	
1739440675197	0.027618408	
1739440675198	0.04524231	
1739440675199	0.044326782	
1739440675200	0.042037964	
1739440675201	0.04119873	
1739440675202	0.027313232	
1739440675203	0.055847168	
1739440675204	0.066604614	
1739440675205	0.021972656	
1739440675206	-0.020370483	
1739440675207	-0.037078857	
1739440675208	-0.019760132	
1739440675209	-0.0032043457	
1739440675210	-0.00289917	
1739440675211	-0.013427734	
1739440675212	-0.02784729	
1739440675213	-0.029830933	
1739440675214	-0.033493042	
1739440675215	-0.039138794	
1739440675216	-0.039901733	
1739440675217	-0.040740967	
1739440675218	-0.031204224	
1739440675219	-0.02708435	
1739440675220	-0.037460327	
1739440675221	-0.029296875	
1739440675222	-0.019302368	
1739440675223	-0.013885498	
1739440675224	-0.003967285	
1739440675225	-0.014877319	
1739440675226	-0.015716553	
1739440675227	0.013504028	
1739440675228	0.009765625	
1739440675229	-0.00831604	
1739440675230	0.004196167	
1739440675231	0.004196167	
1739440675232	-0.01586914	
1739440675233	-0.016326904	
1739440675234	0.014801025	
1739440675235	0.03265381	
1739440675236	0.024032593	
1739440675237	0.049438477	
1739440675238	0.05317688	
1739440675239	0.022125244	
1739440675240	0.01991272	
1739440675241	0.0036621094	
1739440675242	0.0066375732	
1739440675243	0.05142212	
1739440675244	0.07156372	
1739440675245	0.06736755	
1739440675246	0.048446655	
1739440675247	0.01335144	
1739440675248	-0.0046539307	
1739440675249	0.00579834	
1739440675250	0.005722046	
1739440675251	-0.0119018555	
1739440675252	-0.027160645	
1739440675253	-0.025253296	
1739440675254	-0.023956299	
1739440675255	-0.03135681	
1739440675256	-0.043945312	
1739440675257	-0.04989624	
1739440675258	-0.018920898	
1739440675259	-0.028381348	
1739440675260	-0.08644104	
1739440675261	-0.09750366	
1739440675262	-0.05645752	
1739440675263	-0.0024414062	
1739440675264	0.0011444092	
1739440675265	-0.0063323975	
1739440675266	0.02494812	
1739440675267	0.031204224	
1739440675268	0.01449585	
1739440675269	0.01586914	
1739440675270	0.025177002	
1739440675271	0.019989014	
1739440675272	0.011062622	
1739440675273	0.016021729	
1739440675274	0.012664795	
1739440675275	-0.008010864	
1739440675276	-0.013580322	
1739440675277	0.007095337	
1739440675278	0.023040771	
1739440675279	0.027236938	
1739440675280	0.017166138	
1739440675281	9.918213E-4	
1739440675282	-0.006866455	
1739440675283	-0.0011444092	
1739440675284	0.021438599	
1739440675285	0.02067566	
1739440675286	0.017852783	
1739440675287	0.027313232	
1739440675288	0.01083374	
1739440675289	-0.0064849854	
1739440675290	-0.01777649	
1739440675291	-0.005493164	
1739440675292	0.021743774	
1739440675293	-0.009536743	
1739440675294	-0.04135132	
1739440675295	-0.015411377	
1739440675296	0.0010681152	
1739440675297	-0.0032806396	
1739440675298	-0.015335083	
1739440675299	-0.019989014	
1739440675300	-0.0066375732	
1739440675301	-0.008850098	
1739440675302	-0.002670288	
1739440675303	0.009689331	
1739440675304	-2.2888184E-4	
1739440675305	0.007171631	
1739440675306	0.008621216	
1739440675307	-0.0090789795	
1739440675308	-0.001373291	
1739440675309	-6.866455E-4	
1739440675310	-0.0024414062	
1739440675311	0.0118255615	
1739440675312	0.020370483	
1739440675313	0.01953125	
1739440675314	-6.866455E-4	
1739440675315	0.0020599365	
1739440675316	0.008010864	
1739440675317	-0.008392334	
1739440675318	-0.009613037	
1739440675319	-0.015716553	
1739440675320	-0.008468628	
1739440675321	-0.054244995	
1739440675322	-0.11505127	
1739440675323	1.5258789E-4	
1739440675324	0.101242065	
1739440675325	0.06111145	
1739440675326	0.04524231	
1739440675327	0.022583008	
1739440675328	0.001373291	
1739440675329	0.030059814	
1739440675330	0.025405884	
1739440675331	0.0076293945	
1739440675332	-0.016708374	
1739440675333	-0.05630493	
1739440675334	-0.036392212	
1739440675335	0.003967285	
1739440675336	0.0061035156	
1739440675337	-0.008621216	
1739440675338	-0.013885498	
1739440675339	-8.392334E-4	
1739440675340	0.0045776367	
1739440675341	0.012207031	
1739440675342	0.0061035156	
1739440675343	-0.028915405	
1739440675344	-0.039596558	
1739440675345	-0.02067566	
1739440675346	0.0075531006	
1739440675347	0.035095215	
1739440675348	0.040283203	
1739440675349	0.04196167	
1739440675350	0.015411377	
1739440675351	-0.05630493	
1739440675352	-0.06942749	
1739440675353	-0.052642822	
1739440675354	-0.08628845	
1739440675355	-0.11024475	
1739440675356	-0.07575989	
1739440675357	-0.021133423	
1739440675358	0.016479492	
1739440675359	0.027313232	
1739440675360	-0.013198853	
1739440675361	-0.0074768066	
1739440675362	0.14335632	
1739440675363	0.30426025	
1739440675364	0.32348633	
1739440675365	0.24459839	
1739440675366	0.16860962	
1739440675367	0.08293152	
1739440675368	-0.049591064	
1739440675369	-0.13420105	
1739440675370	-0.11932373	
1739440675371	-0.19172668	
1739440675372	-0.26565552	
1739440675373	-0.18379211	
1739440675374	-0.13786316	
1739440675375	-0.14305115	
1739440675376	-0.074920654	
1739440675377	0.08049011	
1739440675378	0.13839722	
1739440675379	0.00869751	
1739440675380	-0.016174316	
1739440675381	0.046920776	
1739440675382	-0.013961792	
1739440675383	-0.008544922	
1739440675384	0.020980835	
1739440675385	-0.023880005	
1739440675386	-0.012664795	
1739440675387	-0.013809204	
1739440675388	0.013656616	
1739440675389	0.07026672	
1739440675390	0.075149536	
1739440675391	0.06462097	
1739440675392	0.01159668	
1739440675393	-0.05378723	
1739440675394	-0.07835388	
1739440675395	-0.03265381	
1739440675396	0.04737854	
1739440675397	0.077819824	
1739440675398	0.07789612	
1739440675399	0.06278992	
1739440675400	0.013961792	
1739440675401	-0.024261475	
1739440675402	-0.020446777	
1739440675403	-0.008163452	
1739440675404	-0.011749268	
1739440675405	-0.03036499	
1739440675406	-0.054779053	
1739440675407	-0.033798218	
1739440675408	0.0017547607	
1739440675409	0.009841919	
1739440675410	0.033493042	
1739440675411	0.03364563	
1739440675412	0.026168823	
1739440675413	0.03944397	
1739440675414	0.021362305	
1739440675415	0.015945435	
1739440675416	0.019836426	
1739440675417	-0.010528564	
1739440675418	-0.069732666	
1739440675419	-0.14404297	
1739440675420	-0.10650635	
1739440675421	-0.009765625	
1739440675422	0.0018310547	
1739440675423	0.05050659	
1739440675424	0.06591797	
1739440675425	-2.2888184E-4	
1739440675426	0.013580322	
1739440675427	0.026397705	
1739440675428	0.04196167	
1739440675429	0.061035156	
1739440675430	0.008163452	
1739440675431	-0.029754639	
1739440675432	-0.027236938	
1739440675433	-0.011444092	
1739440675434	-0.006713867	
1739440675435	-0.019226074	
1739440675436	-0.020751953	
1739440675437	-0.010528564	
1739440675438	-0.0045776367	
1739440675439	3.8146973E-4	
1739440675440	0.007247925	
1739440675441	0.010299683	
1739440675442	0.023727417	
1739440675443	0.016403198	
1739440675444	-0.023117065	
1739440675445	-0.022735596	
1739440675446	0.023345947	
1739440675447	0.01991272	
1739440675448	-0.041122437	
1739440675449	-0.05180359	
1739440675450	-0.017318726	
1739440675451	-0.0015258789	
1739440675452	0.015792847	
1739440675453	0.02532959	
1739440675454	0.027542114	
1739440675455	0.030441284	
1739440675456	-0.003967285	
1739440675457	-0.018005371	
1739440675458	0.0090789795	
1739440675459	0.0046539307	
1739440675460	9.1552734E-4	
1739440675461	0.018692017	
1739440675462	0.023269653	
1739440675463	0.002670288	
1739440675464	-0.014724731	
1739440675465	5.340576E-4	
1739440675466	0.0104522705	
1739440675467	0.010528564	
1739440675468	0.01739502	
1739440675469	0.016098022	
1739440675470	-0.014419556	
1739440675471	-0.041732788	
1739440675472	-0.04058838	
1739440675473	-0.016479492	
1739440675474	0.0104522705	
1739440675475	-0.014266968	
1739440675476	-0.033111572	
1739440675477	-0.023117065	
1739440675478	0.0031280518	
1739440675479	0.024337769	
1739440675480	0.012969971	
1739440675481	0.01663208	
1739440675482	0.009918213	
1739440675483	0.012512207	
1739440675484	0.027313232	
1739440675485	0.0012207031	
1739440675486	0.0025177002	
1739440675487	0.01663208	
1739440675488	0.004119873	
1739440675489	-0.0017547607	
1739440675490	-0.00579834	
1739440675491	-0.0018310547	
1739440675492	0.004425049	
1739440675493	-0.001449585	
1739440675494	-0.014801025	
1739440675495	-0.01411438	
1739440675496	-0.005569458	
1739440675497	-0.008010864	
1739440675498	0.0075531006	
1739440675499	0.007019043	
1739440675500	-0.027770996	
1739440675501	-0.026168823	
1739440675502	0.011062622	
1739440675503	0.012359619	
1739440675504	-0.015411377	
1739440675505	-0.009613037	
1739440675506	0.0033569336	
1739440675507	-0.0012207031	
1739440675508	0.0011444092	
1739440675509	-4.5776367E-4	
1739440675510	-0.0016784668	
1739440675511	0.004119873	
1739440675512	0.0060272217	
1739440675513	0.008087158	
1739440675514	0.008239746	
1739440675515	0.0060272217	
1739440675516	0.004425049	
1739440675517	0.0035095215	
1739440675518	0.006866455	
1739440675519	0.008010864	
1739440675520	0.0064849854	
1739440675521	0.002746582	
1739440675522	2.2888184E-4	
1739440675523	0.0022125244	
1739440675524	-0.0022125244	
1739440675525	-0.002822876	
1739440675526	0.002670288	
1739440675527	0.004272461	
1739440675528	0.0034332275	
1739440675529	-2.2888184E-4	
1739440675530	0.0045776367	
1739440675531	0.0051116943	
1739440675532	-0.0031280518	
1739440675533	-0.003967285	
1739440675534	-0.004272461	
1739440675535	-0.0021362305	
1739440675536	-0.0018310547	
1739440675537	-0.002822876	
1739440675538	0.0020599365	
1739440675539	-4.5776367E-4	
1739440675540	-0.0034332275	
1739440675541	3.0517578E-4	
1739440675542	-0.003967285	
1739440675543	-0.0063323975	
1739440675544	-0.0025177002	
1739440675545	-0.0023651123	
1739440675546	-0.005264282	
1739440675547	-0.009994507	
1739440675548	-0.0076293945	
1739440675549	-0.005645752	
1739440675550	-0.009536743	
1739440675551	-0.009307861	
1739440675552	-0.007019043	
1739440675553	-0.0032043457	
1739440675554	-0.0030517578	
1739440675555	-0.004043579	
1739440675556	-0.004043579	
1739440675557	-0.0038146973	
1739440675558	0.0037384033	
1739440675559	0.00541687	
1739440675560	-8.392334E-4	
1739440675561	0.0030517578	
1739440675562	0.010528564	
1739440675563	0.012054443	
1739440675564	0.01159668	
1739440675565	0.01083374	
1739440675566	0.0059509277	
1739440675567	0.00541687	
1739440675568	0.00831604	
1739440675569	0.007247925	
1739440675570	0.0061798096	
1739440675571	0.0060272217	
1739440675572	0.009002686	
1739440675573	0.004196167	
1739440675574	-0.0016021729	
1739440675575	0.0045776367	
1739440675576	0.0016021729	
1739440675577	9.1552734E-4	
1739440675578	0.008850098	
1739440675579	8.392334E-4	
1739440675580	-0.002822876	
1739440675581	0.005340576	
1739440675582	-0.001449585	
1739440675583	-0.006790161	
1739440675584	-0.0020599365	
1739440675585	-0.005645752	
1739440675586	-0.004501343	
1739440675587	0.0022888184	
1739440675588	-0.004043579	
1739440675589	-0.008010864	
1739440675590	-3.0517578E-4	
1739440675591	0.0032043457	
1739440675592	0.0025939941	
1739440675593	-0.0032043457	
1739440675594	-0.0033569336	
1739440675595	-0.0045776367	
1739440675596	-0.020141602	
1739440675597	-0.026550293	
1739440675598	-0.032196045	
1739440675599	-0.035095215	
1739440675600	-0.016098022	
1739440675601	-0.004348755	
1739440675602	0.0046539307	
1739440675603	0.012054443	
1739440675604	0.016098022	
1739440675605	0.024414062	
1739440675606	0.019607544	
1739440675607	0.015411377	
1739440675608	0.015792847	
1739440675609	0.014877319	
1739440675610	0.020141602	
1739440675611	0.021972656	
1739440675612	0.01449585	
1739440675613	-2.2888184E-4	
1739440675614	-0.009155273	
1739440675615	-0.011978149	
1739440675616	-0.0132751465	
1739440675617	-0.010757446	
1739440675618	-0.009307861	
1739440675619	-0.004196167	
1739440675620	-0.00831604	
1739440675621	-0.0104522705	
1739440675622	0.0	
1739440675623	3.0517578E-4	
1739440675624	-0.00579834	
1739440675625	-0.0037384033	
1739440675626	-0.00579834	
1739440675627	-0.006790161	
1739440675628	0.0022888184	
1739440675629	4.5776367E-4	
1739440675630	0.00793457	
1739440675631	0.01159668	
1739440675632	0.005569458	
1739440675633	0.0029754639	
1739440675634	-0.0021362305	
1739440675635	0.009841919	
1739440675636	0.015563965	
1739440675637	0.011444092	
1739440675638	0.017547607	
1739440675639	0.009155273	
1739440675640	0.005493164	
1739440675641	0.014572144	
1739440675642	6.1035156E-4	
1739440675643	-0.004119873	
1739440675644	-0.0046539307	
1739440675645	-0.01586914	
1739440675646	-0.014801025	
1739440675647	-0.017623901	
1739440675648	-0.01914978	
1739440675649	-0.027542114	
1739440675650	-0.032577515	
1739440675651	-0.023269653	
1739440675652	-0.030212402	
1739440675653	-0.026245117	
1739440675654	-0.018463135	
1739440675655	-0.020523071	
1739440675656	-0.0074005127	
1739440675657	0.0047302246	
1739440675658	0.012969971	
1739440675659	0.030975342	
1739440675660	0.04081726	
1739440675661	0.042266846	
1739440675662	0.041656494	
1739440675663	0.036392212	
1739440675664	0.030975342	
1739440675665	0.02204895	
1739440675666	0.01777649	
1739440675667	0.016098022	
1739440675668	0.012969971	
1739440675669	0.017700195	
1739440675670	0.013809204	
1739440675671	0.00831604	
1739440675672	0.0035858154	
1739440675673	-0.0074005127	
1739440675674	-0.0018310547	
1739440675675	-9.1552734E-4	
1739440675676	-0.014724731	
1739440675677	-0.021820068	
1739440675678	-0.03425598	
1739440675679	-0.039978027	
1739440675680	-0.028305054	
1739440675681	-0.019760132	
1739440675682	-0.010070801	
1739440675683	-0.004501343	
1739440675684	-0.009460449	
1739440675685	-0.009613037	
1739440675686	-0.0031280518	
1739440675687	0.0025939941	
1739440675688	0.0075531006	
1739440675689	0.011367798	
1739440675690	0.012664795	
1739440675691	0.014343262	
1739440675692	0.010910034	
1739440675693	0.0074005127	
1739440675694	0.005645752	
1739440675695	-0.004425049	
1739440675696	-0.005340576	
1739440675697	-7.6293945E-5	
1739440675698	-0.002822876	
1739440675699	-6.1035156E-4	
1739440675700	7.6293945E-5	
1739440675701	-0.004043579	
1739440675702	-0.009002686	
1739440675703	-0.0077819824	
1739440675704	-0.008850098	
1739440675705	-0.022964478	
1739440675706	-0.021209717	
1739440675707	-0.024642944	
1739440675708	-0.037078857	
1739440675709	-0.032806396	
1739440675710	-0.03463745	
1739440675711	-0.024642944	
1739440675712	-0.022125244	
1739440675713	-0.027694702	
1739440675714	-0.009765625	
1739440675715	0.002746582	
1739440675716	0.02357483	
1739440675717	0.034484863	
1739440675718	0.028839111	
1739440675719	0.041656494	
1739440675720	0.050735474	
1739440675721	0.05378723	
1739440675722	0.047073364	
1739440675723	0.04234314	
1739440675724	0.04776001	
1739440675725	0.0440979	
1739440675726	0.035247803	
1739440675727	0.03479004	
1739440675728	0.022583008	
1739440675729	0.0146484375	
1739440675730	0.012817383	
1739440675731	0.0063323975	
1739440675732	-0.0011444092	
1739440675733	-0.0073242188	
1739440675734	-0.0076293945	
1739440675735	-0.02708435	
1739440675736	-0.04058838	
1739440675737	-0.040359497	
1739440675738	-0.04096985	
1739440675739	-0.037460327	
1739440675740	-0.038146973	
1739440675741	-0.04058838	
1739440675742	-0.03555298	
1739440675743	-0.027542114	
1739440675744	-0.022964478	
1739440675745	-0.015411377	
1739440675746	-0.011520386	
1739440675747	-0.015640259	
1739440675748	-0.01373291	
1739440675749	-0.010681152	
1739440675750	-0.006866455	
1739440675751	-9.1552734E-4	
1739440675752	7.6293945E-4	
1739440675753	0.005722046	
1739440675754	0.013046265	
1739440675755	0.018615723	
1739440675756	0.021133423	
1739440675757	0.026016235	
1739440675758	0.030975342	
1739440675759	0.028076172	
1739440675760	0.02494812	
1739440675761	0.028533936	
1739440675762	0.034484863	
1739440675763	0.03677368	
1739440675764	0.037612915	
1739440675765	0.035705566	
1739440675766	0.03074646	
1739440675767	0.022277832	
1739440675768	0.009918213	
1739440675769	-0.0033569336	
1739440675770	-0.009155273	
1739440675771	-0.01159668	
1739440675772	-0.022277832	
1739440675773	-0.024337769	
1739440675774	-0.020217896	
1739440675775	-0.026626587	
1739440675776	-0.036621094	
1739440675777	-0.03715515	
1739440675778	-0.03501892	
1739440675779	-0.03578186	
1739440675780	-0.031814575	
1739440675781	-0.030822754	
1739440675782	-0.021133423	
1739440675783	-0.011749268	
1739440675784	-0.015335083	
1739440675785	-0.013961792	
1739440675786	-0.010910034	
1739440675787	-8.392334E-4	
1739440675788	0.010604858	
1739440675789	0.005874634	
1739440675790	0.0066375732	
1739440675791	0.018615723	
1739440675792	0.016860962	
1739440675793	0.016784668	
1739440675794	0.012359619	
1739440675795	0.0048065186	
1739440675796	0.00541687	
1739440675797	0.0077819824	
1739440675798	0.015335083	
1739440675799	0.01777649	
1739440675800	0.015487671	
1739440675801	0.009384155	
1739440675802	0.0118255615	
1739440675803	0.012969971	
1739440675804	0.009460449	
1739440675805	0.010147095	
1739440675806	0.011291504	
1739440675807	0.010223389	
1739440675808	0.002822876	
1739440675809	0.0025177002	
1739440675810	0.00831604	
1739440675811	0.005645752	
1739440675812	-0.0038909912	
1739440675813	-0.0016021729	
1739440675814	0.0047302246	
1739440675815	0.002746582	
1739440675816	-0.0032806396	
1739440675817	-0.0046539307	
1739440675818	-0.0045776367	
1739440675819	-0.011978149	
1739440675820	-0.012435913	
1739440675821	-0.007095337	
1739440675822	-0.0045776367	
1739440675823	-0.0076293945	
1739440675824	-0.015716553	
1739440675825	-0.011291504	
1739440675826	-0.0051116943	
1739440675827	-0.008392334	
1739440675828	-0.0031280518	
1739440675829	7.6293945E-4	
1739440675830	-9.1552734E-4	
1739440675831	-0.0063323975	
1739440675832	-0.008621216	
1739440675833	-0.0048828125	
1739440675834	3.8146973E-4	
1739440675835	0.0050354004	
1739440675836	0.0038146973	
1739440675837	0.0063323975	
1739440675838	0.013580322	
1739440675839	0.009460449	
1739440675840	0.010910034	
1739440675841	0.013504028	
1739440675842	0.012893677	
1739440675843	0.014190674	
1739440675844	0.0132751465	
1739440675845	0.0050354004	
1739440675846	-0.0012969971	
1739440675847	0.005493164	
1739440675848	0.010147095	
1739440675849	0.009384155	
1739440675850	0.0038146973	
1739440675851	-7.6293945E-4	
1739440675852	0.0011444092	
1739440675853	-0.00579834	
1739440675854	-0.010910034	
1739440675855	-0.008468628	
1739440675856	-0.008773804	
1739440675857	-0.005493164	
1739440675858	-0.010910034	
1739440675859	-0.01335144	
1739440675860	-0.009613037	
1739440675861	-0.012207031	
1739440675862	-0.010910034	
1739440675863	-0.01625061	
1739440675864	-0.017700195	
1739440675865	-0.013046265	
1739440675866	-0.013198853	
1739440675867	-0.013504028	
1739440675868	-0.016708374	
1739440675869	-0.013427734	
1739440675870	-0.015106201	
1739440675871	-0.020065308	
1739440675872	-0.011444092	
1739440675873	-0.004119873	
1739440675874	-0.0035095215	
1739440675875	0.0011444092	
1739440675876	0.0048828125	
1739440675877	0.014190674	
1739440675878	0.015716553	
1739440675879	0.019836426	
1739440675880	0.021438599	
1739440675881	0.018539429	
1739440675882	0.022506714	
1739440675883	0.019378662	
1739440675884	0.02166748	
1739440675885	0.022659302	
1739440675886	0.018920898	
1739440675887	0.024261475	
1739440675888	0.021362305	
1739440675889	0.017623901	
1739440675890	0.015563965	
1739440675891	0.011291504	
1739440675892	0.014953613	
1739440675893	0.015258789	
1739440675894	0.02204895	
1739440675895	0.021438599	
1739440675896	0.007247925	
1739440675897	-0.004272461	
1739440675898	-0.011444092	
1739440675899	-0.010147095	
1739440675900	-0.013198853	
1739440675901	-0.010299683	
1739440675902	-0.0090789795	
1739440675903	-0.02418518	
1739440675904	-0.02708435	
1739440675905	-0.024032593	
1739440675906	-0.0289917	
1739440675907	-0.027389526	
1739440675908	-0.021362305	
1739440675909	-0.018005371	
1739440675910	-0.018310547	
1739440675911	-0.017089844	
1739440675912	-0.018234253	
1739440675913	-0.024642944	
1739440675914	-0.020370483	
1739440675915	-0.01083374	
1739440675916	-0.0011444092	
1739440675917	0.008087158	
1739440675918	0.0012207031	
1739440675919	-0.0061035156	
1739440675920	-9.1552734E-4	
1739440675921	0.0059509277	
1739440675922	0.011291504	
1739440675923	0.017166138	
1739440675924	0.0060272217	
1739440675925	0.0034332275	
1739440675926	0.016174316	
1739440675927	0.007858276	
1739440675928	0.008621216	
1739440675929	0.023269653	
1739440675930	0.01876831	
1739440675931	0.01777649	
1739440675932	0.015792847	
1739440675933	0.00831604	
1739440675934	0.010757446	
1739440675935	0.008163452	
1739440675936	0.008621216	
1739440675937	0.011749268	
1739440675938	0.0018310547	
1739440675939	0.001449585	
1739440675940	0.008773804	
1739440675941	0.0047302246	
1739440675942	0.0049591064	
1739440675943	0.0061798096	
1739440675944	-0.0035095215	
1739440675945	-0.009765625	
1739440675946	-0.0061798096	
1739440675947	-0.0048828125	
1739440675948	-0.006790161	
1739440675949	-0.0047302246	
1739440675950	-0.0037384033	
1739440675951	-0.005340576	
1739440675952	-0.0022888184	
1739440675953	-0.0016784668	
1739440675954	-0.0048828125	
1739440675955	-0.006942749	
1739440675956	-0.014724731	
1739440675957	-0.02204895	
1739440675958	-0.01739502	
1739440675959	-0.0019836426	
1739440675960	0.001449585	
1739440675961	-0.0010681152	
1739440675962	0.0075531006	
1739440675963	0.003967285	
1739440675964	-0.009231567	
1739440675965	-0.013580322	
1739440675966	-0.0017547607	
1739440675967	0.009384155	
1739440675968	0.0025939941	
1739440675969	0.00289917	
1739440675970	0.0038146973	
1739440675971	-0.009002686	
1739440675972	-0.010375977	
1739440675973	-0.0063323975	
1739440675974	-0.007247925	
1739440675975	0.006790161	
1739440675976	0.019454956	
1739440675977	0.017089844	
1739440675978	0.0038909912	
1739440675979	-0.01449585	
1739440675980	-0.008544922	
1739440675981	0.0017547607	
1739440675982	0.0024414062	
1739440675983	0.00831604	
1739440675984	0.010070801	
1739440675985	0.012664795	
1739440675986	0.012512207	
1739440675987	0.009765625	
1739440675988	0.011444092	
1739440675989	0.011520386	
1739440675990	0.01159668	
1739440675991	0.016174316	
1739440675992	0.015716553	
1739440675993	0.0119018555	
1739440675994	0.010528564	
1739440675995	4.5776367E-4	
1739440675996	-0.009613037	
1739440675997	-0.014801025	
1739440675998	-0.017547607	
1739440675999	-0.009613037	
1739440676000	-0.010757446	
1739440676001	-0.015106201	
1739440676002	-0.016479492	
1739440676003	-0.025253296	
1739440676004	-0.024642944	
1739440676005	-0.027999878	
1739440676006	-0.035858154	
1739440676007	-0.028915405	
1739440676008	-0.01663208	
1739440676009	-0.014724731	
1739440676010	-0.007019043	
1739440676011	0.014038086	
1739440676012	0.023422241	
1739440676013	0.01914978	
1739440676014	0.015106201	
1739440676015	0.024719238	
1739440676016	0.02243042	
1739440676017	0.018844604	
1739440676018	0.037994385	
1739440676019	0.029754639	
1739440676020	0.016403198	
1739440676021	0.011062622	
1739440676022	0.0020599365	
1739440676023	0.013046265	
1739440676024	0.013961792	
1739440676025	0.013656616	
1739440676026	0.010910034	
1739440676027	-0.013046265	
1739440676028	-0.012435913	
1739440676029	0.0073242188	
1739440676030	-0.004348755	
1739440676031	-0.021438599	
1739440676032	-0.0132751465	
1739440676033	-0.015487671	
1739440676034	-0.01411438	
1739440676035	-0.00541687	
1739440676036	-0.03387451	
1739440676037	-0.050811768	
1739440676038	-0.02532959	
1739440676039	-0.005569458	
1739440676040	0.009689331	
1739440676041	0.02067566	
1739440676042	0.017166138	
1739440676043	0.0074768066	
1739440676044	-0.009155273	
1739440676045	-0.0012969971	
1739440676046	0.018615723	
1739440676047	0.009384155	
1739440676048	0.015716553	
1739440676049	0.032958984	
1739440676050	0.027923584	
1739440676051	0.02708435	
1739440676052	0.01838684	
1739440676053	0.008468628	
1739440676054	0.018081665	
1739440676055	0.009918213	
1739440676056	-0.004501343	
1739440676057	-0.0077056885	
1739440676058	-0.021896362	
1739440676059	-0.037612915	
1739440676060	-0.034484863	
1739440676061	-0.036315918	
1739440676062	-0.055999756	
1739440676063	-0.05256653	
1739440676064	-0.045394897	
1739440676065	-0.045547485	
1739440676066	-0.030441284	
1739440676067	-0.01586914	
1739440676068	-0.0146484375	
1739440676069	-0.028457642	
1739440676070	-0.02357483	
1739440676071	0.022659302	
1739440676072	0.05859375	
1739440676073	0.065460205	
1739440676074	0.07858276	
1739440676075	0.066833496	
1739440676076	0.032806396	
1739440676077	0.027694702	
1739440676078	0.03807068	
1739440676079	0.046463013	
1739440676080	0.037384033	
1739440676081	0.027008057	
1739440676082	0.019607544	
1739440676083	3.0517578E-4	
1739440676084	-0.007171631	
1739440676085	-0.013580322	
1739440676086	-0.03112793	
1739440676087	-0.046691895	
1739440676088	-0.048980713	
1739440676089	-0.03540039	
1739440676090	-0.015106201	
1739440676091	-0.017852783	
1739440676092	-0.03265381	
1739440676093	-0.031204224	
1739440676094	-0.02281189	
1739440676095	-0.019607544	
1739440676096	-0.020751953	
1739440676097	-0.01449585	
1739440676098	0.007247925	
1739440676099	0.026321411	
1739440676100	0.050735474	
1739440676101	0.082855225	
1739440676102	0.07118225	
1739440676103	0.056991577	
1739440676104	0.057525635	
1739440676105	0.050048828	
1739440676106	0.051956177	
1739440676107	0.033493042	
1739440676108	0.03074646	
1739440676109	0.052947998	
1739440676110	0.023956299	
1739440676111	-0.035324097	
1739440676112	-0.08201599	
1739440676113	-0.078201294	
1739440676114	-0.061264038	
1739440676115	-0.091552734	
1739440676116	-0.10269165	
1739440676117	-0.088272095	
1739440676118	-0.0818634	
1739440676119	-0.08529663	
1739440676120	-0.10360718	
1739440676121	-0.091171265	
1739440676122	-0.03753662	
1739440676123	-0.008010864	
1739440676124	-0.0032043457	
1739440676125	-0.007095337	
1739440676126	0.01449585	
1739440676127	0.046081543	
1739440676128	0.0415802	
1739440676129	0.0592041	
1739440676130	0.081100464	
1739440676131	0.08270264	
1739440676132	0.08407593	
1739440676133	0.056991577	
1739440676134	0.027313232	
1739440676135	0.039901733	
1739440676136	0.05744934	
1739440676137	0.04798889	
1739440676138	0.04348755	
1739440676139	0.04043579	
1739440676140	0.004272461	
1739440676141	-0.02784729	
1739440676142	-0.012283325	
1739440676143	0.008926392	
1739440676144	0.0119018555	
1739440676145	0.0090789795	
1739440676146	0.0076293945	
1739440676147	0.017318726	
1739440676148	0.010528564	
1739440676149	-0.004425049	
1739440676150	-0.0034332275	
1739440676151	-0.0036621094	
1739440676152	-1.5258789E-4	
1739440676153	-4.5776367E-4	
1739440676154	-0.010147095	
1739440676155	-0.026931763	
1739440676156	-0.040512085	
1739440676157	-0.03364563	
1739440676158	-0.039596558	
1739440676159	-0.050354004	
1739440676160	-0.034942627	
1739440676161	-0.01373291	
1739440676162	-0.017929077	
1739440676163	-0.04547119	
1739440676164	-0.047302246	
1739440676165	-0.019454956	
1739440676166	-0.0064086914	
1739440676167	-0.0064086914	
1739440676168	0.0048065186	
1739440676169	0.01083374	
1739440676170	-0.01625061	
1739440676171	-0.021209717	
1739440676172	0.0074005127	
1739440676173	0.016174316	
1739440676174	0.02204895	
1739440676175	0.03387451	
1739440676176	0.038604736	
1739440676177	0.043792725	
1739440676178	0.026550293	
1739440676179	-0.004501343	
1739440676180	0.001373291	
1739440676181	0.010604858	
1739440676182	1.5258789E-4	
1739440676183	-9.1552734E-4	
1739440676184	-7.6293945E-5	
1739440676185	0.012207031	
1739440676186	0.02204895	
1739440676187	0.0033569336	
1739440676188	0.006866455	
1739440676189	0.0118255615	
1739440676190	-0.009765625	
1739440676191	0.0011444092	
1739440676192	0.016555786	
1739440676193	0.007019043	
1739440676194	-0.002822876	
1739440676195	-0.012741089	
1739440676196	-0.015792847	
1739440676197	-0.0030517578	
1739440676198	-0.006866455	
1739440676199	-0.034942627	
1739440676200	-0.02670288	
1739440676201	-0.016479492	
1739440676202	-0.01625061	
1739440676203	-0.0037384033	
1739440676204	-0.008850098	
1739440676205	-0.0051116943	
1739440676206	0.007095337	
1739440676207	-1.5258789E-4	
1739440676208	-0.009155273	
1739440676209	0.0051116943	
1739440676210	0.020980835	
1739440676211	0.01777649	
1739440676212	0.013656616	
1739440676213	0.0074768066	
1739440676214	0.006942749	
1739440676215	0.01083374	
1739440676216	0.0074768066	
1739440676217	0.0016021729	
1739440676218	-0.0038909912	
1739440676219	-0.0021362305	
1739440676220	0.0021362305	
1739440676221	-2.2888184E-4	
1739440676222	6.866455E-4	
1739440676223	0.01083374	
1739440676224	0.012664795	
1739440676225	0.0104522705	
1739440676226	0.01777649	
1739440676227	0.019226074	
1739440676228	0.018539429	
1739440676229	0.021209717	
1739440676230	0.012741089	
1739440676231	-3.8146973E-4	
1739440676232	-0.0075531006	
1739440676233	-0.013961792	
1739440676234	-0.026168823	
1739440676235	-0.02319336	
1739440676236	-0.005874634	
1739440676237	-0.009613037	
1739440676238	-0.013504028	
1739440676239	-0.009994507	
1739440676240	-0.021209717	
1739440676241	-0.012664795	
1739440676242	-9.918213E-4	
1739440676243	-0.009384155	
1739440676244	-0.0037384033	
1739440676245	0.0023651123	
1739440676246	9.1552734E-4	
1739440676247	0.0051879883	
1739440676248	-3.8146973E-4	
1739440676249	-0.012817383	
1739440676250	0.007095337	
1739440676251	0.01335144	
1739440676252	-0.06668091	
1739440676253	-0.083236694	
1739440676254	0.012817383	
1739440676255	0.019073486	
1739440676256	-0.029373169	
1739440676257	-0.0146484375	
1739440676258	0.009918213	
1739440676259	0.025939941	
1739440676260	0.020065308	
1739440676261	0.0119018555	
1739440676262	0.029678345	
1739440676263	0.028457642	
1739440676264	0.027923584	
1739440676265	0.036849976	
1739440676266	0.021896362	
1739440676267	0.013809204	
1739440676268	0.019760132	
1739440676269	0.024490356	
1739440676270	0.03173828	
1739440676271	0.03440857	
1739440676272	0.027313232	
1739440676273	0.011749268	
1739440676274	7.6293945E-4	
1739440676275	-0.011367798	
1739440676276	-0.030670166	
1739440676277	-0.023040771	
1739440676278	-0.02532959	
1739440676279	-0.045394897	
1739440676280	-0.027389526	
1739440676281	-0.02532959	
1739440676282	-0.032348633	
1739440676283	-0.007247925	
1739440676284	-0.0030517578	
1739440676285	-0.039138794	
1739440676286	-0.05455017	
1739440676287	-0.026397705	
1739440676288	-0.018157959	
1739440676289	-0.0315094	
1739440676290	-0.018615723	
1739440676291	0.002670288	
1739440676292	0.015563965	
1739440676293	0.021209717	
1739440676294	0.024795532	
1739440676295	0.03425598	
1739440676296	0.033187866	
1739440676297	0.030517578	
1739440676298	0.025405884	
1739440676299	0.01083374	
1739440676300	0.011062622	
1739440676301	0.01586914	
1739440676302	0.01449585	
1739440676303	0.01777649	
1739440676304	0.015182495	
1739440676305	0.008010864	
1739440676306	0.012054443	
1739440676307	0.029373169	
1739440676308	0.035095215	
1739440676309	0.024108887	
1739440676310	0.019378662	
1739440676311	0.010223389	
1739440676312	-0.006713867	
1739440676313	-0.007858276	
1739440676314	-0.011062622	
1739440676315	-0.005493164	
1739440676316	0.0050354004	
1739440676317	-0.04333496	
1739440676318	-0.08560181	
1739440676319	-0.046081543	
1739440676320	0.004196167	
1739440676321	-0.007858276	
1739440676322	-0.018463135	
1739440676323	-0.0030517578	
1739440676324	-8.392334E-4	
1739440676325	0.004348755	
1739440676326	-0.00793457	
1739440676327	-0.03677368	
1739440676328	-0.04272461	
1739440676329	-0.010604858	
1739440676330	0.009460449	
1739440676331	0.0010681152	
1739440676332	0.0061035156	
1739440676333	9.918213E-4	
1739440676334	-0.002670288	
1739440676335	0.008239746	
1739440676336	0.011520386	
1739440676337	0.01121521	
1739440676338	0.0032043457	
1739440676339	0.0046539307	
1739440676340	0.010986328	
1739440676341	0.017089844	
1739440676342	0.03227234	
1739440676343	0.027999878	
1739440676344	0.022354126	
1739440676345	0.026779175	
1739440676346	0.010299683	
1739440676347	-0.024261475	
1739440676348	-0.025253296	
1739440676349	-0.006790161	
1739440676350	-0.017700195	
1739440676351	-0.001373291	
1739440676352	0.022506714	
1739440676353	0.023498535	
1739440676354	0.026321411	
1739440676355	0.0045776367	
1739440676356	-0.017929077	
1739440676357	-0.024795532	
1739440676358	-0.024337769	
1739440676359	-0.017547607	
1739440676360	-0.007247925	
1739440676361	0.0076293945	
1739440676362	-5.340576E-4	
1739440676363	-0.0036621094	
1739440676364	0.009765625	
1739440676365	-0.0051116943	
1739440676366	-0.08934021	
1739440676367	-0.19546509	
1739440676368	-0.17303467	
1739440676369	-0.031585693	
1739440676370	0.14770508	
1739440676371	0.24681091	
1739440676372	0.18295288	
1739440676373	0.076828	
1739440676374	-0.021362305	
1739440676375	-0.030899048	
1739440676376	0.072021484	
1739440676377	0.13641357	
1739440676378	0.12924194	
1739440676379	0.07759094	
1739440676380	-0.029525757	
1739440676381	-0.15007019	
1739440676382	-0.16738892	
1739440676383	-0.12756348	
1739440676384	-0.14968872	
1739440676385	-0.14640808	
1739440676386	0.0019073486	
1739440676387	0.16395569	
1739440676388	0.1890564	
1739440676389	0.06752014	
1739440676390	-0.14663696	
1739440676391	-0.21003723	
1739440676392	-0.15014648	
1739440676393	-0.12741089	
1739440676394	-0.00541687	
1739440676395	0.08476257	
1739440676396	0.14465332	
1739440676397	0.21514893	
1739440676398	0.11627197	
1739440676399	0.09017944	
1739440676400	0.059509277	
1739440676401	-0.06752014	
1739440676402	-0.037841797	
1739440676403	-0.024108887	
1739440676404	-0.015945435	
1739440676405	0.013427734	
1739440676406	-0.02243042	
1739440676407	-0.0046539307	
1739440676408	-0.009918213	
1739440676409	-0.038604736	
1739440676410	-0.01838684	
1739440676411	-0.03288269	
1739440676412	-0.062332153	
1739440676413	-0.044174194	
1739440676414	-0.01449585	
1739440676415	0.00793457	
1739440676416	0.039749146	
1739440676417	0.024642944	
1739440676418	-0.016098022	
1739440676419	7.6293945E-4	
1739440676420	0.011291504	
1739440676421	-0.009994507	
1739440676422	0.001373291	
1739440676423	0.01121521	
1739440676424	0.010375977	
1739440676425	0.029754639	
1739440676426	0.04234314	
1739440676427	0.06607056	
1739440676428	0.06607056	
1739440676429	0.0038909912	
1739440676430	-0.02822876	
1739440676431	-0.018692017	
1739440676432	-0.048217773	
1739440676433	-0.09246826	
1739440676434	-0.09880066	
1739440676435	-0.08102417	
1739440676436	-0.031280518	
1739440676437	0.028076172	
1739440676438	0.06561279	
1739440676439	0.053253174	
1739440676440	0.014038086	
1739440676441	0.024490356	
1739440676442	0.0038146973	
1739440676443	-0.06652832	
1739440676444	-0.025787354	
1739440676445	0.0881958	
1739440676446	0.09712219	
1739440676447	0.08895874	
1739440676448	0.08735657	
1739440676449	-0.0440979	
1739440676450	-0.07575989	
1739440676451	-0.013198853	
1739440676452	-0.07217407	
1739440676453	-0.06706238	
1739440676454	0.061340332	
1739440676455	0.16189575	
1739440676456	0.18180847	
1739440676457	0.10887146	
1739440676458	0.013961792	
1739440676459	-0.014190674	
1739440676460	-0.037460327	
1739440676461	-0.08842468	
1739440676462	-0.16410828	
1739440676463	-0.1903534	
1739440676464	-0.09277344	
1739440676465	-0.060653687	
1739440676466	-0.07637024	
1739440676467	-0.05065918	
1739440676468	-0.08148193	
1739440676469	-0.03829956	
1739440676470	0.053710938	
1739440676471	0.025177002	
1739440676472	0.04890442	
1739440676473	0.09353638	
1739440676474	0.04348755	
1739440676475	0.020904541	
1739440676476	-0.01411438	
1739440676477	-0.0019836426	
1739440676478	0.07064819	
1739440676479	0.055770874	
1739440676480	0.038375854	
1739440676481	0.027160645	
1739440676482	0.0018310547	
1739440676483	0.024719238	
1739440676484	0.021591187	
1739440676485	-0.0011444092	
1739440676486	-0.0034332275	
1739440676487	-0.0031280518	
