# OpenSignals Text File Format
# {"00:80:E1:26:A1:B0":{"sensor":["EMG"],"device name":"00:80:E1:26:A1:B0","column":["timestamp","EMG"],"sync interval":2,"time":"09:23:32","comments":"","keywords":"","device connection":"BLE00:80:E1:26:A1:B0","channels":[0],"date":"2024-12-09","mode":0,"digital IO":[],"firmware version":259,"device":"musclebanplux","position":0,"sampling rate":1000,"label":["EMG"],"resolution":[16],"special":[{}],"sleeve color":["UNKNOWN"]}}
# EndOfHeader
1733732613548	-0.009307861	
1733732613549	-0.004196167	
1733732613550	-0.0066375732	
1733732613551	-0.008544922	
1733732613552	-0.0015258789	
1733732613553	-7.6293945E-5	
1733732613554	0.004348755	
1733732613555	0.008773804	
1733732613556	0.0019073486	
1733732613557	0.007095337	
1733732613558	0.008163452	
1733732613559	-0.0075531006	
1733732613560	-0.0012207031	
1733732613561	0.003967285	
1733732613562	0.0035095215	
1733732613563	0.008087158	
1733732613564	0.001373291	
1733732613565	0.0021362305	
1733732613566	-0.0025939941	
1733732613567	-0.008544922	
1733732613568	-0.002670288	
1733732613569	-0.0061798096	
1733732613570	-0.0022888184	
1733732613571	0.0018310547	
1733732613572	-0.0038146973	
1733732613573	0.0018310547	
1733732613574	-2.2888184E-4	
1733732613575	-0.0038146973	
1733732613576	9.1552734E-4	
1733732613577	-0.0022125244	
1733732613578	6.866455E-4	
1733732613579	0.0029754639	
1733732613580	-1.5258789E-4	
1733732613581	0.002822876	
1733732613582	-6.1035156E-4	
1733732613583	-0.004119873	
1733732613584	-0.0012969971	
1733732613585	-0.0016784668	
1733732613586	-2.2888184E-4	
1733732613587	0.0019836426	
1733732613588	0.0023651123	
1733732613589	0.004272461	
1733732613590	0.0019073486	
1733732613591	-6.866455E-4	
1733732613592	0.0021362305	
1733732613593	-0.0037384033	
1733732613594	-0.010299683	
1733732613595	5.340576E-4	
1733732613596	0.0018310547	
1733732613597	-0.0064849854	
1733732613598	0.0036621094	
1733732613599	0.010681152	
1733732613600	0.0050354004	
1733732613601	0.0060272217	
1733732613602	-0.0012207031	
1733732613603	-0.013122559	
1733732613604	-0.003967285	
1733732613605	0.0030517578	
1733732613606	-0.0012207031	
1733732613607	-0.0016021729	
1733732613608	-5.340576E-4	
1733732613609	-8.392334E-4	
1733732613610	2.2888184E-4	
1733732613611	0.0036621094	
1733732613612	0.0019836426	
1733732613613	0.0038146973	
1733732613614	0.006790161	
1733732613615	0.0025939941	
1733732613616	0.004272461	
1733732613617	-0.0020599365	
1733732613618	-0.011749268	
1733732613619	-7.6293945E-5	
1733732613620	0.0064086914	
1733732613621	-5.340576E-4	
1733732613622	-2.2888184E-4	
1733732613623	-0.0022888184	
1733732613624	-0.0032806396	
1733732613625	0.0	
1733732613626	0.0	
1733732613627	-0.0038909912	
1733732613628	-0.006713867	
1733732613629	-0.008468628	
1733732613630	-0.008163452	
1733732613631	0.0045776367	
1733732613632	0.010223389	
1733732613633	-1.5258789E-4	
1733732613634	8.392334E-4	
1733732613635	0.009384155	
1733732613636	0.002746582	
1733732613637	-0.0019073486	
1733732613638	-0.0010681152	
1733732613639	-0.003967285	
1733732613640	-0.0033569336	
1733732613641	-0.008468628	
1733732613642	-0.0075531006	
1733732613643	5.340576E-4	
1733732613644	0.0035858154	
1733732613645	0.005645752	
1733732613646	0.0051116943	
1733732613647	0.0073242188	
1733732613648	-4.5776367E-4	
1733732613649	-0.0060272217	
1733732613650	0.0025939941	
1733732613651	0.003967285	
1733732613652	0.005645752	
1733732613653	0.0066375732	
1733732613654	6.866455E-4	
1733732613655	-0.0035858154	
1733732613656	6.1035156E-4	
1733732613657	0.0032043457	
1733732613658	1.5258789E-4	
1733732613659	-9.1552734E-4	
1733732613660	-0.002670288	
1733732613661	-0.004196167	
1733732613662	-0.004272461	
1733732613663	-0.0032043457	
1733732613664	7.6293945E-4	
1733732613665	-0.004348755	
1733732613666	-0.0066375732	
1733732613667	-0.0029754639	
1733732613668	-0.0046539307	
1733732613669	0.005722046	
1733732613670	0.008239746	
1733732613671	0.0022125244	
1733732613672	0.007095337	
1733732613673	0.0036621094	
1733732613674	-0.0016021729	
1733732613675	-0.0025939941	
1733732613676	-0.0025939941	
1733732613677	-0.008087158	
1733732613678	-0.010986328	
1733732613679	0.0030517578	
1733732613680	0.005493164	
1733732613681	0.0018310547	
1733732613682	0.00579834	
1733732613683	-0.002670288	
1733732613684	-0.00579834	
1733732613685	-0.0025177002	
1733732613686	-0.004043579	
1733732613687	7.6293945E-5	
1733732613688	0.0019836426	
1733732613689	0.0023651123	
1733732613690	0.0049591064	
1733732613691	0.0048065186	
1733732613692	0.0016784668	
1733732613693	0.0048828125	
1733732613694	0.0030517578	
1733732613695	-0.0062561035	
1733732613696	-0.002746582	
1733732613697	-0.0024414062	
1733732613698	0.0032806396	
1733732613699	0.0075531006	
1733732613700	-0.00541687	
1733732613701	-0.010528564	
1733732613702	-0.008773804	
1733732613703	-0.0012969971	
1733732613704	0.0012207031	
1733732613705	-0.0029754639	
1733732613706	0.004272461	
1733732613707	0.010375977	
1733732613708	0.0025939941	
1733732613709	-0.0023651123	
1733732613710	8.392334E-4	
1733732613711	0.004501343	
1733732613712	0.0074005127	
1733732613713	0.0038909912	
1733732613714	0.0010681152	
1733732613715	5.340576E-4	
1733732613716	-0.001449585	
1733732613717	6.866455E-4	
1733732613718	-1.5258789E-4	
1733732613719	-0.0025939941	
1733732613720	0.0023651123	
1733732613721	0.0012969971	
1733732613722	-0.0038146973	
1733732613723	-0.0022125244	
1733732613724	-0.008087158	
1733732613725	-0.0077819824	
1733732613726	0.0045776367	
1733732613727	9.918213E-4	
1733732613728	-0.0063323975	
1733732613729	-0.0032806396	
1733732613730	-0.0012207031	
1733732613731	9.1552734E-4	
1733732613732	-9.1552734E-4	
1733732613733	-0.0036621094	
1733732613734	-0.005264282	
1733732613735	-0.007247925	
1733732613736	-0.0023651123	
1733732613737	-0.0016784668	
1733732613738	6.1035156E-4	
1733732613739	0.007171631	
1733732613740	0.006942749	
1733732613741	0.009536743	
1733732613742	0.0045776367	
1733732613743	-0.005340576	
1733732613744	0.0023651123	
1733732613745	0.008468628	
1733732613746	6.866455E-4	
1733732613747	-0.002822876	
1733732613748	9.1552734E-4	
1733732613749	0.005645752	
1733732613750	0.004196167	
1733732613751	-0.0048828125	
1733732613752	-0.003967285	
1733732613753	0.0012207031	
1733732613754	-0.0035095215	
1733732613755	-0.0035858154	
1733732613756	-0.0010681152	
1733732613757	0.0034332275	
1733732613758	0.009765625	
1733732613759	9.918213E-4	
1733732613760	-0.0074768066	
1733732613761	-0.005264282	
1733732613762	-8.392334E-4	
1733732613763	0.0010681152	
1733732613764	-6.866455E-4	
1733732613765	0.004196167	
1733732613766	0.0062561035	
1733732613767	-0.0012207031	
1733732613768	-0.009536743	
1733732613769	-0.0073242188	
1733732613770	0.0022125244	
1733732613771	-0.001373291	
1733732613772	-0.00289917	
1733732613773	4.5776367E-4	
1733732613774	9.1552734E-4	
1733732613775	0.002822876	
1733732613776	2.2888184E-4	
1733732613777	-0.00289917	
1733732613778	-0.0045776367	
1733732613779	-6.1035156E-4	
1733732613780	0.0022888184	
1733732613781	0.0012207031	
1733732613782	4.5776367E-4	
1733732613783	0.0016784668	
1733732613784	0.0012969971	
1733732613785	-7.6293945E-5	
1733732613786	0.0063323975	
1733732613787	0.0035858154	
1733732613788	-0.0023651123	
1733732613789	-0.0051879883	
1733732613790	-0.004043579	
1733732613791	-6.1035156E-4	
1733732613792	-0.0076293945	
1733732613793	-4.5776367E-4	
1733732613794	0.008010864	
1733732613795	0.0036621094	
1733732613796	0.006942749	
1733732613797	0.0032806396	
1733732613798	0.0025177002	
1733732613799	0.0047302246	
1733732613800	-3.0517578E-4	
1733732613801	0.0063323975	
1733732613802	0.0034332275	
1733732613803	-0.007019043	
1733732613804	-0.0032043457	
1733732613805	-0.005645752	
1733732613806	-0.008163452	
1733732613807	-0.0024414062	
1733732613808	-2.2888184E-4	
1733732613809	6.866455E-4	
1733732613810	-0.0063323975	
1733732613811	-0.0074005127	
1733732613812	6.866455E-4	
1733732613813	0.0015258789	
1733732613814	3.8146973E-4	
1733732613815	-0.0022888184	
1733732613816	-0.0038146973	
1733732613817	-0.002746582	
1733732613818	-0.002746582	
1733732613819	-0.0019836426	
1733732613820	5.340576E-4	
1733732613821	0.00289917	
1733732613822	0.0073242188	
1733732613823	0.010910034	
1733732613824	0.014419556	
1733732613825	0.018234253	
1733732613826	0.0062561035	
1733732613827	-0.0059509277	
1733732613828	-0.008010864	
1733732613829	-0.010375977	
1733732613830	-0.0074005127	
1733732613831	-0.007858276	
1733732613832	-0.013656616	
1733732613833	-0.005722046	
1733732613834	0.0025177002	
1733732613835	4.5776367E-4	
1733732613836	0.0012969971	
1733732613837	0.0020599365	
1733732613838	3.0517578E-4	
1733732613839	0.0024414062	
1733732613840	0.0051116943	
1733732613841	0.005569458	
1733732613842	0.0046539307	
1733732613843	0.0022888184	
1733732613844	0.007858276	
1733732613845	0.008773804	
1733732613846	-0.0025939941	
1733732613847	-0.002746582	
1733732613848	0.005722046	
1733732613849	0.0024414062	
1733732613850	-6.866455E-4	
1733732613851	-0.0024414062	
1733732613852	-0.007858276	
1733732613853	-0.006942749	
1733732613854	-0.009689331	
1733732613855	-0.008544922	
1733732613856	-0.0020599365	
1733732613857	-0.0048065186	
1733732613858	-0.004119873	
1733732613859	-0.0015258789	
1733732613860	-0.0010681152	
1733732613861	7.6293945E-4	
1733732613862	0.0016784668	
1733732613863	0.0037384033	
1733732613864	0.0025939941	
1733732613865	0.002670288	
1733732613866	0.007858276	
1733732613867	0.0061035156	
1733732613868	-0.0035858154	
1733732613869	-0.0034332275	
1733732613870	-3.8146973E-4	
1733732613871	0.0	
1733732613872	0.002670288	
1733732613873	0.004272461	
1733732613874	0.0048828125	
1733732613875	0.0034332275	
1733732613876	5.340576E-4	
1733732613877	0.0012207031	
1733732613878	0.004348755	
1733732613879	5.340576E-4	
1733732613880	-0.0050354004	
1733732613881	-0.0024414062	
1733732613882	0.0033569336	
1733732613883	0.0035858154	
1733732613884	0.0016021729	
1733732613885	-0.001373291	
1733732613886	-0.005722046	
1733732613887	-0.009460449	
1733732613888	-0.012588501	
1733732613889	-0.004501343	
1733732613890	0.0016784668	
1733732613891	-0.009002686	
1733732613892	-0.007171631	
1733732613893	-9.1552734E-4	
1733732613894	0.003967285	
1733732613895	0.014266968	
1733732613896	0.0063323975	
1733732613897	0.009155273	
1733732613898	0.011138916	
1733732613899	-7.6293945E-5	
1733732613900	-0.0012207031	
1733732613901	-0.010070801	
1733732613902	-0.012435913	
1733732613903	-0.016174316	
1733732613904	-0.013046265	
1733732613905	0.006942749	
1733732613906	0.0046539307	
1733732613907	0.0025939941	
1733732613908	0.010910034	
1733732613909	0.013427734	
1733732613910	0.009689331	
1733732613911	0.0016021729	
1733732613912	7.6293945E-5	
1733732613913	-0.0035095215	
1733732613914	0.0012969971	
1733732613915	0.009613037	
1733732613916	0.0061798096	
1733732613917	9.1552734E-4	
1733732613918	-0.0073242188	
1733732613919	-0.0038146973	
1733732613920	-0.0047302246	
1733732613921	-0.008163452	
1733732613922	0.0031280518	
1733732613923	-0.0024414062	
1733732613924	-0.0048065186	
1733732613925	-5.340576E-4	
1733732613926	-0.0046539307	
1733732613927	-0.002670288	
1733732613928	-5.340576E-4	
1733732613929	-0.0018310547	
1733732613930	-0.005340576	
1733732613931	-0.001449585	
1733732613932	-2.2888184E-4	
1733732613933	-0.0038146973	
1733732613934	0.0017547607	
1733732613935	0.0030517578	
1733732613936	-0.0017547607	
1733732613937	-0.0035095215	
1733732613938	-0.004043579	
1733732613939	-9.1552734E-4	
1733732613940	0.007247925	
1733732613941	0.0035858154	
1733732613942	0.0025177002	
1733732613943	0.009536743	
1733732613944	0.00289917	
1733732613945	0.0036621094	
1733732613946	0.0048065186	
1733732613947	-0.0034332275	
1733732613948	-0.0016021729	
1733732613949	0.0015258789	
1733732613950	9.918213E-4	
1733732613951	0.0030517578	
1733732613952	0.0025939941	
1733732613953	8.392334E-4	
1733732613954	-0.0011444092	
1733732613955	0.0023651123	
1733732613956	0.0047302246	
1733732613957	-0.0016784668	
1733732613958	-0.0019073486	
1733732613959	-0.001449585	
1733732613960	-0.0034332275	
1733732613961	-0.0037384033	
1733732613962	-0.0021362305	
1733732613963	0.0030517578	
1733732613964	-0.001449585	
1733732613965	-7.6293945E-4	
1733732613966	0.0019073486	
1733732613967	-0.008087158	
1733732613968	-0.008544922	
1733732613969	-0.0024414062	
1733732613970	0.0030517578	
1733732613971	-0.0017547607	
1733732613972	-0.010681152	
1733732613973	-0.003967285	
1733732613974	-0.0051879883	
1733732613975	-0.013046265	
1733732613976	-0.0051116943	
1733732613977	0.00541687	
1733732613978	0.0064086914	
1733732613979	-0.0011444092	
1733732613980	0.0017547607	
1733732613981	0.010375977	
1733732613982	0.010070801	
1733732613983	0.009155273	
1733732613984	0.010147095	
1733732613985	0.0074768066	
1733732613986	4.5776367E-4	
1733732613987	0.0051116943	
1733732613988	0.008010864	
1733732613989	0.0011444092	
1733732613990	-0.0017547607	
1733732613991	-0.0064086914	
1733732613992	-0.004043579	
1733732613993	3.0517578E-4	
1733732613994	-0.0016021729	
1733732613995	-0.0020599365	
1733732613996	-0.0061798096	
1733732613997	-0.004272461	
1733732613998	-0.0010681152	
1733732613999	-0.0061798096	
1733732614000	-0.0032806396	
1733732614001	0.0010681152	
1733732614002	-0.0033569336	
1733732614003	-0.0032806396	
1733732614004	-5.340576E-4	
1733732614005	-0.001449585	
1733732614006	0.0033569336	
1733732614007	0.00579834	
1733732614008	0.003967285	
1733732614009	3.8146973E-4	
1733732614010	-0.0037384033	
1733732614011	-2.2888184E-4	
1733732614012	0.0036621094	
1733732614013	-7.6293945E-4	
1733732614014	-0.0045776367	
1733732614015	-6.1035156E-4	
1733732614016	0.0012969971	
1733732614017	-0.002746582	
1733732614018	-0.0038146973	
1733732614019	-9.1552734E-4	
1733732614020	0.002822876	
1733732614021	0.004119873	
1733732614022	0.005340576	
1733732614023	0.004196167	
1733732614024	-0.0030517578	
1733732614025	-0.002822876	
1733732614026	8.392334E-4	
1733732614027	7.6293945E-5	
1733732614028	3.8146973E-4	
1733732614029	-8.392334E-4	
1733732614030	-0.0020599365	
1733732614031	-0.0016784668	
1733732614032	3.0517578E-4	
1733732614033	-6.1035156E-4	
1733732614034	-0.0034332275	
1733732614035	0.0049591064	
1733732614036	0.009841919	
1733732614037	0.004501343	
1733732614038	0.002822876	
1733732614039	0.0025939941	
1733732614040	-0.001449585	
1733732614041	-0.008392334	
1733732614042	-0.009536743	
1733732614043	-0.0016784668	
1733732614044	0.0046539307	
1733732614045	0.009460449	
1733732614046	0.007171631	
1733732614047	-0.005493164	
1733732614048	-0.013809204	
1733732614049	-0.020599365	
1733732614050	-0.022964478	
1733732614051	-0.015716553	
1733732614052	-0.0023651123	
1733732614053	0.016326904	
1733732614054	0.024490356	
1733732614055	0.023117065	
1733732614056	0.01335144	
1733732614057	-0.01121521	
1733732614058	-0.020065308	
1733732614059	-0.01739502	
1733732614060	-0.017623901	
1733732614061	-0.0021362305	
1733732614062	0.010986328	
1733732614063	0.01701355	
1733732614064	0.025482178	
1733732614065	0.017700195	
1733732614066	0.008239746	
1733732614067	0.004425049	
1733732614068	0.0012969971	
1733732614069	0.00289917	
1733732614070	0.0032043457	
1733732614071	0.0032806396	
1733732614072	-0.0022125244	
1733732614073	-0.0031280518	
1733732614074	-0.0048828125	
1733732614075	-0.014724731	
1733732614076	-0.011749268	
1733732614077	-0.01121521	
1733732614078	-0.010299683	
1733732614079	-0.0017547607	
1733732614080	-0.0065612793	
1733732614081	-0.007019043	
1733732614082	0.0035858154	
1733732614083	0.0022125244	
1733732614084	0.0038146973	
1733732614085	0.008239746	
1733732614086	0.0035858154	
1733732614087	0.0019836426	
1733732614088	0.0024414062	
1733732614089	-9.918213E-4	
1733732614090	-0.0019073486	
1733732614091	0.0045776367	
1733732614092	0.004425049	
1733732614093	-0.0032043457	
1733732614094	-7.6293945E-4	
1733732614095	0.0012969971	
1733732614096	0.0012969971	
1733732614097	-0.0024414062	
1733732614098	-0.0059509277	
1733732614099	0.0032806396	
1733732614100	0.005569458	
1733732614101	0.002822876	
1733732614102	-9.1552734E-4	
1733732614103	-0.0016021729	
1733732614104	0.0025177002	
1733732614105	-0.0048065186	
1733732614106	-0.0046539307	
1733732614107	0.00541687	
1733732614108	-0.0018310547	
1733732614109	-0.0038146973	
1733732614110	0.0048065186	
1733732614111	6.1035156E-4	
1733732614112	0.0030517578	
1733732614113	0.0049591064	
1733732614114	0.0022125244	
1733732614115	0.0035095215	
1733732614116	-0.0046539307	
1733732614117	-0.004425049	
1733732614118	-0.0017547607	
1733732614119	-0.009231567	
1733732614120	-0.0063323975	
1733732614121	0.0048065186	
1733732614122	0.009536743	
1733732614123	0.009841919	
1733732614124	0.0010681152	
1733732614125	-0.008926392	
1733732614126	-0.017700195	
1733732614127	-0.022125244	
1733732614128	-0.010375977	
1733732614129	-0.0011444092	
1733732614130	0.00541687	
1733732614131	0.013885498	
1733732614132	0.0118255615	
1733732614133	0.007171631	
1733732614134	0.0024414062	
1733732614135	-0.0010681152	
1733732614136	-4.5776367E-4	
1733732614137	0.0022125244	
1733732614138	-0.0017547607	
1733732614139	-0.01701355	
1733732614140	-0.032043457	
1733732614141	-0.03211975	
1733732614142	-0.017166138	
1733732614143	-0.0032043457	
1733732614144	0.013656616	
1733732614145	0.026626587	
1733732614146	0.024642944	
1733732614147	0.023498535	
1733732614148	0.01876831	
1733732614149	0.009231567	
1733732614150	0.009613037	
1733732614151	0.015487671	
1733732614152	0.03440857	
1733732614153	0.06637573	
1733732614154	0.067596436	
1733732614155	0.025634766	
1733732614156	-0.01914978	
1733732614157	-0.051574707	
1733732614158	-0.07583618	
1733732614159	-0.08102417	
1733732614160	-0.072021484	
1733732614161	-0.04638672	
1733732614162	-0.015106201	
1733732614163	-0.0020599365	
1733732614164	0.00793457	
1733732614165	0.022277832	
1733732614166	0.029373169	
1733732614167	0.03135681	
1733732614168	0.026626587	
1733732614169	0.008773804	
1733732614170	4.5776367E-4	
1733732614171	-0.0018310547	
1733732614172	-0.010757446	
1733732614173	-0.0051879883	
1733732614174	0.0025177002	
1733732614175	0.0051116943	
1733732614176	0.010223389	
1733732614177	0.007019043	
1733732614178	0.012435913	
1733732614179	0.009155273	
1733732614180	-0.0025177002	
1733732614181	-7.6293945E-4	
1733732614182	-0.0036621094	
1733732614183	-0.004348755	
1733732614184	-0.0060272217	
1733732614185	-0.0064849854	
1733732614186	-9.1552734E-4	
1733732614187	-0.001373291	
1733732614188	0.008621216	
1733732614189	0.011291504	
1733732614190	0.0033569336	
1733732614191	9.1552734E-4	
1733732614192	0.009231567	
1733732614193	0.025253296	
1733732614194	0.02166748	
1733732614195	-0.0012207031	
1733732614196	-0.024337769	
1733732614197	-0.04486084	
1733732614198	-0.048599243	
1733732614199	-0.03303528	
1733732614200	-0.020980835	
1733732614201	-0.0074005127	
1733732614202	0.008468628	
1733732614203	0.0049591064	
1733732614204	0.002822876	
1733732614205	0.008392334	
1733732614206	0.007247925	
1733732614207	0.0050354004	
1733732614208	0.005645752	
1733732614209	0.014572144	
1733732614210	0.01701355	
1733732614211	0.0051116943	
1733732614212	0.0038909912	
1733732614213	0.010681152	
1733732614214	0.023498535	
1733732614215	0.031433105	
1733732614216	0.016174316	
1733732614217	-0.0031280518	
1733732614218	-0.013427734	
1733732614219	-0.017623901	
1733732614220	-0.017166138	
1733732614221	0.0037384033	
1733732614222	0.029296875	
1733732614223	0.023345947	
1733732614224	7.6293945E-4	
1733732614225	-0.024414062	
1733732614226	-0.046310425	
1733732614227	-0.041656494	
1733732614228	-0.012359619	
1733732614229	0.010528564	
1733732614230	0.023498535	
1733732614231	0.027236938	
1733732614232	0.0025177002	
1733732614233	-0.020370483	
1733732614234	-0.022735596	
1733732614235	-0.022888184	
1733732614236	-0.018310547	
1733732614237	-0.0038909912	
1733732614238	0.020446777	
1733732614239	0.03540039	
1733732614240	0.034332275	
1733732614241	0.024032593	
1733732614242	-0.0034332275	
1733732614243	-0.029525757	
1733732614244	-0.034179688	
1733732614245	-0.014953613	
1733732614246	6.866455E-4	
1733732614247	0.0065612793	
1733732614248	0.013656616	
1733732614249	0.0073242188	
1733732614250	0.004196167	
1733732614251	0.004196167	
1733732614252	-0.00289917	
1733732614253	-0.0047302246	
1733732614254	-0.0063323975	
1733732614255	0.0010681152	
1733732614256	0.01411438	
1733732614257	0.020751953	
1733732614258	0.015487671	
1733732614259	-7.6293945E-5	
1733732614260	-0.005493164	
1733732614261	-0.01121521	
1733732614262	-0.005722046	
1733732614263	0.008850098	
1733732614264	0.002822876	
1733732614265	0.001373291	
1733732614266	0.0066375732	
1733732614267	-0.0015258789	
1733732614268	-0.011367798	
1733732614269	-0.01159668	
1733732614270	-0.011978149	
1733732614271	-0.021591187	
1733732614272	-0.022506714	
1733732614273	-0.005645752	
1733732614274	0.0076293945	
1733732614275	0.01586914	
1733732614276	0.014801025	
1733732614277	0.0030517578	
1733732614278	-2.2888184E-4	
1733732614279	-6.1035156E-4	
1733732614280	-0.0031280518	
1733732614281	-9.1552734E-4	
1733732614282	0.004501343	
1733732614283	0.0035095215	
1733732614284	-2.2888184E-4	
1733732614285	0.0029754639	
1733732614286	0.004119873	
1733732614287	0.0075531006	
1733732614288	0.0074768066	
1733732614289	0.0012207031	
1733732614290	-0.0048065186	
1733732614291	-0.010070801	
1733732614292	-0.013122559	
1733732614293	-0.006866455	
1733732614294	0.0047302246	
1733732614295	0.011138916	
1733732614296	0.011291504	
1733732614297	0.01335144	
1733732614298	0.018081665	
1733732614299	1.5258789E-4	
1733732614300	-0.025405884	
1733732614301	-0.026626587	
1733732614302	-0.020065308	
1733732614303	-0.016937256	
1733732614304	-0.005264282	
1733732614305	-1.5258789E-4	
1733732614306	-0.0076293945	
1733732614307	-0.0011444092	
1733732614308	0.0075531006	
1733732614309	0.008621216	
1733732614310	0.013809204	
1733732614311	0.0146484375	
1733732614312	0.015563965	
1733732614313	0.009384155	
1733732614314	0.0036621094	
1733732614315	0.009918213	
1733732614316	0.0025177002	
1733732614317	9.918213E-4	
1733732614318	0.0065612793	
1733732614319	0.0	
1733732614320	0.0015258789	
1733732614321	-0.0037384033	
1733732614322	-0.005264282	
1733732614323	0.0051116943	
1733732614324	-0.007247925	
1733732614325	-0.013656616	
1733732614326	-0.01121521	
1733732614327	-0.013885498	
1733732614328	-0.004196167	
1733732614329	-0.0051116943	
1733732614330	-0.008010864	
1733732614331	-0.0019073486	
1733732614332	-0.0065612793	
1733732614333	-0.0038909912	
1733732614334	0.0061035156	
1733732614335	0.009155273	
1733732614336	0.00793457	
1733732614337	0.0024414062	
1733732614338	0.008163452	
1733732614339	0.009613037	
1733732614340	9.918213E-4	
1733732614341	0.0074005127	
1733732614342	0.0064086914	
1733732614343	0.0020599365	
1733732614344	-0.0019073486	
1733732614345	-0.0077056885	
1733732614346	0.0030517578	
1733732614347	0.004348755	
1733732614348	0.0025939941	
1733732614349	0.0022125244	
1733732614350	-0.0035095215	
1733732614351	-0.0017547607	
1733732614352	-0.0038909912	
1733732614353	-0.0066375732	
1733732614354	-0.0066375732	
1733732614355	-0.00831604	
1733732614356	-0.0075531006	
1733732614357	-0.00793457	
1733732614358	-0.004348755	
1733732614359	0.01159668	
1733732614360	0.025024414	
1733732614361	0.01991272	
1733732614362	0.00869751	
1733732614363	-0.003967285	
1733732614364	-0.020065308	
1733732614365	-0.028457642	
1733732614366	-0.027770996	
1733732614367	-0.012588501	
1733732614368	0.004272461	
1733732614369	-0.0051116943	
1733732614370	-0.013809204	
1733732614371	-0.0035858154	
1733732614372	0.005874634	
1733732614373	0.004425049	
1733732614374	0.009841919	
1733732614375	0.01953125	
1733732614376	0.010604858	
1733732614377	0.009841919	
1733732614378	0.014953613	
1733732614379	0.007858276	
1733732614380	0.011444092	
1733732614381	0.012664795	
1733732614382	0.008468628	
1733732614383	0.009841919	
1733732614384	-0.0032043457	
1733732614385	-0.012359619	
1733732614386	-0.004501343	
1733732614387	-0.0064086914	
1733732614388	-0.0035858154	
1733732614389	0.0032806396	
1733732614390	-0.0077819824	
1733732614391	-0.008163452	
1733732614392	-0.0062561035	
1733732614393	-0.013046265	
1733732614394	-0.008392334	
1733732614395	-0.003967285	
1733732614396	9.918213E-4	
1733732614397	0.0104522705	
1733732614398	0.007095337	
1733732614399	-0.00541687	
1733732614400	-0.006790161	
1733732614401	-7.6293945E-4	
1733732614402	0.004501343	
1733732614403	0.008392334	
1733732614404	3.8146973E-4	
1733732614405	-0.0076293945	
1733732614406	-0.009613037	
1733732614407	-0.008468628	
1733732614408	-0.0022888184	
1733732614409	0.0016021729	
1733732614410	0.0066375732	
1733732614411	0.010223389	
1733732614412	0.008163452	
1733732614413	0.0030517578	
1733732614414	3.8146973E-4	
1733732614415	-0.0049591064	
1733732614416	-0.00831604	
1733732614417	-0.00541687	
1733732614418	9.1552734E-4	
1733732614419	0.0077819824	
1733732614420	0.0029754639	
1733732614421	-0.0046539307	
1733732614422	-0.00579834	
1733732614423	-0.0018310547	
1733732614424	0.0	
1733732614425	4.5776367E-4	
1733732614426	0.00579834	
1733732614427	6.866455E-4	
1733732614428	-0.0038146973	
1733732614429	0.0012207031	
1733732614430	6.1035156E-4	
1733732614431	6.1035156E-4	
1733732614432	0.004425049	
1733732614433	0.00579834	
1733732614434	0.009613037	
1733732614435	0.004272461	
1733732614436	-0.0023651123	
1733732614437	-7.6293945E-5	
1733732614438	3.0517578E-4	
1733732614439	0.0018310547	
1733732614440	-0.002746582	
1733732614441	-0.0019073486	
1733732614442	0.001373291	
1733732614443	0.0019836426	
1733732614444	9.918213E-4	
1733732614445	-0.008087158	
1733732614446	-5.340576E-4	
1733732614447	0.010681152	
1733732614448	0.016784668	
1733732614449	0.016098022	
1733732614450	7.6293945E-4	
1733732614451	-0.0015258789	
1733732614452	-0.0019836426	
1733732614453	-0.014343262	
1733732614454	-0.019302368	
1733732614455	-0.025100708	
1733732614456	-0.03967285	
1733732614457	-0.045700073	
1733732614458	-0.034179688	
1733732614459	-0.014419556	
1733732614460	0.007858276	
1733732614461	0.020751953	
1733732614462	0.014801025	
1733732614463	0.019302368	
1733732614464	0.027313232	
1733732614465	0.02456665	
1733732614466	0.029525757	
1733732614467	0.025558472	
1733732614468	0.016479492	
1733732614469	0.012893677	
1733732614470	0.016098022	
1733732614471	0.021896362	
1733732614472	0.027770996	
1733732614473	0.050201416	
1733732614474	0.05973816	
1733732614475	0.04714966	
1733732614476	0.016403198	
1733732614477	-0.037460327	
1733732614478	-0.08331299	
1733732614479	-0.10520935	
1733732614480	-0.09765625	
1733732614481	-0.08293152	
1733732614482	-0.102386475	
1733732614483	-0.096588135	
1733732614484	-0.056381226	
1733732614485	-0.041503906	
1733732614486	-0.026779175	
1733732614487	0.01373291	
1733732614488	0.052719116	
1733732614489	0.06248474	
1733732614490	0.07095337	
1733732614491	0.078430176	
1733732614492	0.05821228	
1733732614493	0.03677368	
1733732614494	0.046539307	
1733732614495	0.07652283	
1733732614496	0.078811646	
1733732614497	0.05218506	
1733732614498	0.03555298	
1733732614499	0.02166748	
1733732614500	0.005340576	
1733732614501	-0.0017547607	
1733732614502	0.0017547607	
1733732614503	0.004425049	
1733732614504	0.0036621094	
1733732614505	0.0022125244	
1733732614506	-0.012893677	
1733732614507	-0.019378662	
1733732614508	-0.017852783	
1733732614509	-0.024795532	
1733732614510	-0.03517151	
1733732614511	-0.044708252	
1733732614512	-0.055389404	
1733732614513	-0.06843567	
1733732614514	-0.05859375	
1733732614515	-0.045700073	
1733732614516	-0.04852295	
1733732614517	-0.044708252	
1733732614518	-0.023956299	
1733732614519	0.008926392	
1733732614520	0.011138916	
1733732614521	-0.002822876	
1733732614522	0.0048828125	
1733732614523	0.012283325	
1733732614524	0.009384155	
1733732614525	-0.00831604	
1733732614526	-0.023956299	
1733732614527	-0.020828247	
1733732614528	-0.0073242188	
1733732614529	0.028686523	
1733732614530	0.05706787	
1733732614531	0.058059692	
1733732614532	0.072021484	
1733732614533	0.075683594	
1733732614534	0.054855347	
1733732614535	0.05836487	
1733732614536	0.054244995	
1733732614537	0.035858154	
1733732614538	0.024414062	
1733732614539	0.004348755	
1733732614540	-0.0046539307	
1733732614541	-0.007095337	
1733732614542	-0.022506714	
1733732614543	-0.044631958	
1733732614544	-0.06286621	
1733732614545	-0.05882263	
1733732614546	-0.043792725	
1733732614547	-0.039215088	
1733732614548	-0.036621094	
1733732614549	-0.028686523	
1733732614550	-0.019836426	
1733732614551	-0.012283325	
1733732614552	-0.013504028	
1733732614553	-0.010681152	
1733732614554	-8.392334E-4	
1733732614555	-5.340576E-4	
1733732614556	0.0061798096	
1733732614557	0.014038086	
1733732614558	0.012435913	
1733732614559	0.016784668	
1733732614560	0.01625061	
1733732614561	0.009002686	
1733732614562	0.0032806396	
1733732614563	0.004043579	
1733732614564	0.014419556	
1733732614565	0.013122559	
1733732614566	0.006790161	
1733732614567	0.0077819824	
1733732614568	0.007858276	
1733732614569	0.009613037	
1733732614570	0.006866455	
1733732614571	3.8146973E-4	
1733732614572	-3.0517578E-4	
1733732614573	-0.0018310547	
1733732614574	-2.2888184E-4	
1733732614575	0.0038146973	
1733732614576	0.0048828125	
1733732614577	0.00541687	
1733732614578	-6.866455E-4	
1733732614579	-0.008392334	
1733732614580	-0.007095337	
1733732614581	5.340576E-4	
1733732614582	-0.0020599365	
1733732614583	-0.011749268	
1733732614584	-0.008239746	
1733732614585	-8.392334E-4	
1733732614586	0.008163452	
1733732614587	0.017623901	
1733732614588	0.013961792	
1733732614589	0.0090789795	
1733732614590	0.0020599365	
1733732614591	-0.009002686	
1733732614592	-0.009689331	
1733732614593	-0.0059509277	
1733732614594	-0.0050354004	
1733732614595	3.8146973E-4	
1733732614596	0.0049591064	
1733732614597	0.0029754639	
1733732614598	0.0064086914	
1733732614599	0.0020599365	
1733732614600	-0.01159668	
1733732614601	-0.012969971	
1733732614602	-0.011672974	
1733732614603	-0.0090789795	
1733732614604	0.0016021729	
1733732614605	0.0049591064	
1733732614606	-0.0046539307	
1733732614607	-0.01083374	
1733732614608	-0.014419556	
1733732614609	-0.018920898	
1733732614610	-0.016555786	
1733732614611	-0.011978149	
1733732614612	-0.0076293945	
1733732614613	0.0012207031	
1733732614614	0.0021362305	
1733732614615	-3.8146973E-4	
1733732614616	-0.005340576	
1733732614617	-0.008468628	
1733732614618	0.010070801	
1733732614619	0.018844604	
1733732614620	0.009384155	
1733732614621	0.010223389	
1733732614622	0.014343262	
1733732614623	0.013046265	
1733732614624	0.013580322	
1733732614625	0.01586914	
1733732614626	0.018997192	
1733732614627	0.013656616	
1733732614628	0.004348755	
1733732614629	0.0010681152	
1733732614630	-0.0032043457	
1733732614631	-0.004043579	
1733732614632	0.0074768066	
1733732614633	0.016098022	
1733732614634	0.0065612793	
1733732614635	-4.5776367E-4	
1733732614636	-0.002822876	
1733732614637	-0.0132751465	
1733732614638	-0.014724731	
1733732614639	-0.00289917	
1733732614640	9.1552734E-4	
1733732614641	-0.0032806396	
1733732614642	-0.0010681152	
1733732614643	0.0032043457	
1733732614644	0.0063323975	
1733732614645	0.0037384033	
1733732614646	-4.5776367E-4	
1733732614647	0.0063323975	
1733732614648	0.004272461	
1733732614649	-0.005722046	
1733732614650	-0.0061798096	
1733732614651	-0.01159668	
1733732614652	-0.0146484375	
1733732614653	-0.010375977	
1733732614654	-0.0032043457	
1733732614655	0.002746582	
1733732614656	-0.011138916	
1733732614657	-0.017547607	
1733732614658	-0.009307861	
1733732614659	-0.012817383	
1733732614660	-0.008621216	
1733732614661	-5.340576E-4	
1733732614662	0.0032043457	
1733732614663	9.918213E-4	
1733732614664	-0.005493164	
1733732614665	-0.005493164	
1733732614666	-0.005569458	
1733732614667	-0.0018310547	
1733732614668	0.0032806396	
1733732614669	0.005493164	
1733732614670	0.008010864	
1733732614671	0.010528564	
1733732614672	0.016860962	
1733732614673	0.012664795	
1733732614674	0.006790161	
1733732614675	0.01083374	
1733732614676	0.008010864	
1733732614677	0.004043579	
1733732614678	0.0020599365	
1733732614679	0.0016784668	
1733732614680	0.0038146973	
1733732614681	6.866455E-4	
1733732614682	-0.004119873	
1733732614683	-0.004196167	
1733732614684	-0.0034332275	
1733732614685	5.340576E-4	
1733732614686	0.005493164	
1733732614687	-2.2888184E-4	
1733732614688	-0.0021362305	
1733732614689	0.0022888184	
1733732614690	7.6293945E-5	
1733732614691	-0.0022888184	
1733732614692	-3.0517578E-4	
1733732614693	-0.004348755	
1733732614694	-0.0032043457	
1733732614695	0.0016784668	
1733732614696	-0.0020599365	
1733732614697	-0.0021362305	
1733732614698	-0.012893677	
1733732614699	-0.01586914	
1733732614700	-0.007095337	
1733732614701	-0.008010864	
1733732614702	-0.00289917	
1733732614703	-0.004348755	
1733732614704	-0.005874634	
1733732614705	-0.0038909912	
1733732614706	0.0012969971	
1733732614707	0.0047302246	
1733732614708	-0.0012207031	
1733732614709	-1.5258789E-4	
1733732614710	-7.6293945E-4	
1733732614711	0.0016784668	
1733732614712	0.0059509277	
1733732614713	0.00541687	
1733732614714	0.012359619	
1733732614715	0.011520386	
1733732614716	0.0104522705	
1733732614717	0.011749268	
1733732614718	0.008163452	
1733732614719	0.012588501	
1733732614720	0.009765625	
1733732614721	0.0020599365	
1733732614722	0.004348755	
1733732614723	0.0025177002	
1733732614724	-0.0024414062	
1733732614725	-0.0012207031	
1733732614726	0.0036621094	
1733732614727	0.007858276	
1733732614728	0.004425049	
1733732614729	-3.8146973E-4	
1733732614730	0.0016784668	
1733732614731	-0.001373291	
1733732614732	-0.0049591064	
1733732614733	-0.004196167	
1733732614734	-0.004119873	
1733732614735	-0.0025177002	
1733732614736	-0.0064849854	
1733732614737	-0.005569458	
1733732614738	-0.0017547607	
1733732614739	-0.00831604	
1733732614740	-0.0076293945	
1733732614741	-0.0024414062	
1733732614742	-0.008010864	
1733732614743	-0.009460449	
1733732614744	-0.0038909912	
1733732614745	-0.00869751	
1733732614746	-0.012054443	
1733732614747	-0.0074768066	
1733732614748	-0.005874634	
1733732614749	-0.0016021729	
1733732614750	-0.0019836426	
1733732614751	-0.0010681152	
1733732614752	-7.6293945E-5	
1733732614753	-0.0064086914	
1733732614754	-0.0019836426	
1733732614755	0.0038909912	
1733732614756	0.0021362305	
1733732614757	0.003967285	
1733732614758	0.004348755	
1733732614759	0.0048828125	
1733732614760	0.0065612793	
1733732614761	0.004348755	
1733732614762	0.0035858154	
1733732614763	0.0029754639	
1733732614764	-6.866455E-4	
1733732614765	0.004196167	
1733732614766	0.0031280518	
1733732614767	0.0025939941	
1733732614768	0.009460449	
1733732614769	0.0038909912	
1733732614770	0.004501343	
1733732614771	0.0074768066	
1733732614772	9.918213E-4	
1733732614773	-3.8146973E-4	
1733732614774	1.5258789E-4	
1733732614775	-7.6293945E-4	
1733732614776	-5.340576E-4	
1733732614777	-0.0025177002	
1733732614778	-0.0045776367	
1733732614779	-0.0048828125	
1733732614780	-0.0029754639	
1733732614781	-0.001373291	
1733732614782	-7.6293945E-5	
1733732614783	-7.6293945E-4	
1733732614784	-0.0051879883	
1733732614785	0.002670288	
1733732614786	0.0075531006	
1733732614787	0.0020599365	
1733732614788	0.0033569336	
1733732614789	0.0025177002	
1733732614790	-2.2888184E-4	
1733732614791	-0.0025177002	
1733732614792	-0.0018310547	
1733732614793	5.340576E-4	
1733732614794	-0.0020599365	
1733732614795	0.0021362305	
1733732614796	0.0036621094	
1733732614797	0.0022125244	
1733732614798	0.0015258789	
1733732614799	-4.5776367E-4	
1733732614800	7.6293945E-5	
1733732614801	8.392334E-4	
1733732614802	0.002670288	
1733732614803	0.00541687	
1733732614804	-0.0025177002	
1733732614805	-0.00289917	
1733732614806	0.0025177002	
1733732614807	-0.003967285	
1733732614808	-0.005264282	
1733732614809	-0.0065612793	
1733732614810	-0.0016021729	
1733732614811	0.0016021729	
1733732614812	-0.005340576	
1733732614813	3.8146973E-4	
1733732614814	0.002746582	
1733732614815	-6.1035156E-4	
1733732614816	-0.0016784668	
1733732614817	-0.0018310547	
1733732614818	-0.0010681152	
1733732614819	-0.0064849854	
1733732614820	-0.0032043457	
1733732614821	0.0019836426	
1733732614822	-0.0030517578	
1733732614823	-0.0031280518	
1733732614824	-5.340576E-4	
1733732614825	0.0010681152	
1733732614826	9.1552734E-4	
1733732614827	1.5258789E-4	
1733732614828	-9.918213E-4	
1733732614829	-0.002670288	
1733732614830	-0.0038909912	
1733732614831	-0.0038909912	
1733732614832	0.005874634	
1733732614833	0.008239746	
1733732614834	0.0024414062	
1733732614835	0.0045776367	
1733732614836	0.0032806396	
1733732614837	0.0059509277	
1733732614838	0.015106201	
1733732614839	0.0132751465	
1733732614840	0.0064849854	
1733732614841	7.6293945E-5	
1733732614842	-0.009841919	
1733732614843	-0.014724731	
1733732614844	-0.009765625	
1733732614845	-0.004348755	
1733732614846	-0.0012207031	
1733732614847	0.0018310547	
1733732614848	0.0016784668	
1733732614849	0.0030517578	
1733732614850	0.005493164	
1733732614851	0.0029754639	
1733732614852	0.003967285	
1733732614853	0.0045776367	
1733732614854	2.2888184E-4	
1733732614855	-8.392334E-4	
1733732614856	-0.0037384033	
1733732614857	-0.0062561035	
1733732614858	-0.007019043	
1733732614859	-0.008850098	
1733732614860	-7.6293945E-5	
1733732614861	0.004501343	
1733732614862	5.340576E-4	
1733732614863	0.0021362305	
1733732614864	-0.0018310547	
1733732614865	-0.0025939941	
1733732614866	-0.0022125244	
1733732614867	-0.0076293945	
1733732614868	7.6293945E-5	
1733732614869	0.0019836426	
1733732614870	-0.002670288	
1733732614871	-6.1035156E-4	
1733732614872	-0.006790161	
1733732614873	-0.005722046	
1733732614874	-9.918213E-4	
1733732614875	-0.0051879883	
1733732614876	-0.0015258789	
1733732614877	0.004348755	
1733732614878	0.0062561035	
1733732614879	0.0035858154	
1733732614880	0.004196167	
1733732614881	0.011138916	
1733732614882	0.0051879883	
1733732614883	-5.340576E-4	
1733732614884	0.0010681152	
1733732614885	-3.8146973E-4	
1733732614886	6.1035156E-4	
1733732614887	0.002670288	
1733732614888	0.004196167	
1733732614889	0.0037384033	
1733732614890	0.0064849854	
1733732614891	0.0066375732	
1733732614892	0.0035858154	
1733732614893	0.0051879883	
1733732614894	-2.2888184E-4	
1733732614895	-0.004196167	
1733732614896	-0.005264282	
1733732614897	-0.007019043	
1733732614898	-0.005493164	
1733732614899	-0.008239746	
1733732614900	-0.001373291	
1733732614901	0.0025177002	
1733732614902	-0.0035858154	
1733732614903	4.5776367E-4	
1733732614904	-0.0048065186	
1733732614905	-0.010986328	
1733732614906	-8.392334E-4	
1733732614907	0.004501343	
1733732614908	0.0051116943	
1733732614909	0.007019043	
1733732614910	0.007171631	
1733732614911	0.0050354004	
1733732614912	0.0015258789	
1733732614913	0.0022888184	
1733732614914	-3.8146973E-4	
1733732614915	-0.0016784668	
1733732614916	0.002822876	
1733732614917	-0.0048065186	
1733732614918	-0.01373291	
1733732614919	-0.012054443	
1733732614920	-0.0047302246	
1733732614921	-0.0036621094	
1733732614922	-0.0029754639	
1733732614923	1.5258789E-4	
1733732614924	-0.008468628	
1733732614925	-0.008926392	
1733732614926	-0.0029754639	
1733732614927	0.0037384033	
1733732614928	0.01159668	
1733732614929	0.005340576	
1733732614930	0.0076293945	
1733732614931	0.009765625	
1733732614932	-0.0035858154	
1733732614933	-0.0037384033	
1733732614934	0.002670288	
1733732614935	-3.8146973E-4	
1733732614936	-6.1035156E-4	
1733732614937	0.002670288	
1733732614938	0.0048065186	
1733732614939	0.0077056885	
1733732614940	0.009231567	
1733732614941	0.0038909912	
1733732614942	-0.0024414062	
1733732614943	-9.1552734E-4	
1733732614944	-0.001373291	
1733732614945	0.0010681152	
1733732614946	0.0035858154	
1733732614947	-0.004272461	
1733732614948	-0.001449585	
1733732614949	0.0035095215	
1733732614950	-0.0021362305	
1733732614951	-0.00579834	
1733732614952	-0.00869751	
1733732614953	-0.007858276	
1733732614954	-9.918213E-4	
1733732614955	0.005340576	
1733732614956	0.008544922	
1733732614957	0.00831604	
1733732614958	0.0038909912	
1733732614959	-0.0074768066	
1733732614960	-0.008087158	
1733732614961	0.00579834	
1733732614962	0.006790161	
1733732614963	0.0037384033	
1733732614964	0.004348755	
1733732614965	0.0038909912	
1733732614966	0.006942749	
1733732614967	0.002746582	
1733732614968	0.0024414062	
1733732614969	0.0065612793	
1733732614970	0.0022888184	
1733732614971	6.866455E-4	
1733732614972	-0.0050354004	
1733732614973	-0.013961792	
1733732614974	-0.012054443	
1733732614975	-0.016326904	
1733732614976	-0.020065308	
1733732614977	-0.018234253	
1733732614978	-0.018157959	
1733732614979	-0.011672974	
1733732614980	-0.012054443	
1733732614981	-0.010604858	
1733732614982	-0.0036621094	
1733732614983	6.1035156E-4	
1733732614984	0.004501343	
1733732614985	0.0032043457	
1733732614986	0.007019043	
1733732614987	0.006866455	
1733732614988	0.0023651123	
1733732614989	0.008468628	
1733732614990	0.007247925	
1733732614991	0.0038146973	
1733732614992	0.00541687	
1733732614993	0.0035095215	
1733732614994	0.007858276	
1733732614995	0.015182495	
1733732614996	0.01701355	
1733732614997	0.018844604	
1733732614998	0.020599365	
1733732614999	0.018234253	
1733732615000	0.01991272	
1733732615001	0.022888184	
1733732615002	0.016784668	
1733732615003	0.01663208	
1733732615004	0.012969971	
1733732615005	0.0033569336	
1733732615006	0.0012969971	
1733732615007	-0.004043579	
1733732615008	-0.011672974	
1733732615009	-0.010910034	
1733732615010	-0.012054443	
1733732615011	-0.009155273	
1733732615012	-0.004425049	
1733732615013	-0.009536743	
1733732615014	-0.015029907	
1733732615015	-0.026855469	
1733732615016	-0.029220581	
1733732615017	-0.021057129	
1733732615018	-0.028762817	
1733732615019	-0.031661987	
1733732615020	-0.031661987	
1733732615021	-0.03929138	
1733732615022	-0.034713745	
1733732615023	-0.027770996	
1733732615024	-0.015487671	
1733732615025	0.011978149	
1733732615026	0.029525757	
1733732615027	0.024337769	
1733732615028	0.017547607	
1733732615029	0.023345947	
1733732615030	0.02204895	
1733732615031	0.00793457	
1733732615032	0.006866455	
1733732615033	0.01991272	
1733732615034	0.025787354	
1733732615035	0.019454956	
1733732615036	0.016555786	
1733732615037	0.012893677	
1733732615038	-0.0074005127	
1733732615039	-0.021438599	
1733732615040	-0.01411438	
1733732615041	-0.005264282	
1733732615042	0.004119873	
1733732615043	0.008392334	
1733732615044	0.0075531006	
1733732615045	0.012130737	
1733732615046	0.017929077	
1733732615047	0.01335144	
1733732615048	0.0119018555	
1733732615049	0.025405884	
1733732615050	0.016403198	
1733732615051	0.007095337	
1733732615052	0.01625061	
1733732615053	0.013656616	
1733732615054	0.017089844	
1733732615055	0.022583008	
1733732615056	0.01373291	
1733732615057	-0.0051879883	
1733732615058	-0.023880005	
1733732615059	-0.026931763	
1733732615060	-0.020980835	
1733732615061	-0.017318726	
1733732615062	-0.00579834	
1733732615063	0.0048828125	
1733732615064	-7.6293945E-4	
1733732615065	-0.013580322	
1733732615066	-0.03463745	
1733732615067	-0.042037964	
1733732615068	-0.036239624	
1733732615069	-0.049819946	
1733732615070	-0.061798096	
1733732615071	-0.075302124	
1733732615072	-0.07522583	
1733732615073	-0.044708252	
1733732615074	-0.01586914	
1733732615075	0.009994507	
1733732615076	0.027160645	
1733732615077	0.025787354	
1733732615078	0.01701355	
1733732615079	0.01373291	
1733732615080	0.017929077	
1733732615081	0.018920898	
1733732615082	0.019989014	
1733732615083	0.035095215	
1733732615084	0.05455017	
1733732615085	0.06278992	
1733732615086	0.054016113	
1733732615087	0.034103394	
1733732615088	0.025939941	
1733732615089	0.020904541	
1733732615090	0.007858276	
1733732615091	0.0032806396	
1733732615092	0.014343262	
1733732615093	0.030517578	
1733732615094	0.04562378	
1733732615095	0.057907104	
1733732615096	0.0655365	
1733732615097	0.053710938	
1733732615098	0.032348633	
1733732615099	0.02029419	
1733732615100	0.001449585	
1733732615101	-0.007019043	
1733732615102	-0.0119018555	
1733732615103	-0.015716553	
1733732615104	-0.02708435	
1733732615105	-0.038375854	
1733732615106	-0.051651	
1733732615107	-0.058898926	
1733732615108	-0.047683716	
1733732615109	-0.042419434	
1733732615110	-0.03791809	
1733732615111	-0.030975342	
1733732615112	-0.036010742	
1733732615113	-0.037765503	
1733732615114	-0.036697388	
1733732615115	-0.03677368	
1733732615116	-0.029830933	
1733732615117	-0.02609253	
1733732615118	-0.04058838	
1733732615119	-0.049438477	
1733732615120	-0.05569458	
1733732615121	-0.07072449	
1733732615122	-0.06210327	
1733732615123	-0.046844482	
1733732615124	-0.029525757	
1733732615125	-0.01411438	
1733732615126	-0.005264282	
1733732615127	0.011291504	
1733732615128	0.021514893	
1733732615129	0.035324097	
1733732615130	0.054092407	
1733732615131	0.06561279	
1733732615132	0.07293701	
1733732615133	0.06416321	
1733732615134	0.06706238	
1733732615135	0.07965088	
1733732615136	0.07713318	
1733732615137	0.06996155	
1733732615138	0.05783081	
1733732615139	0.051574707	
1733732615140	0.047836304	
1733732615141	0.03868103	
1733732615142	0.028762817	
1733732615143	0.024108887	
1733732615144	0.019836426	
1733732615145	0.0059509277	
1733732615146	-0.0031280518	
1733732615147	-0.009536743	
1733732615148	-0.019683838	
1733732615149	-0.017318726	
1733732615150	-0.0045776367	
1733732615151	-0.006790161	
1733732615152	-0.020217896	
1733732615153	-0.021438599	
1733732615154	-0.019683838	
1733732615155	-0.027313232	
1733732615156	-0.030212402	
1733732615157	-0.028076172	
1733732615158	-0.03753662	
1733732615159	-0.044631958	
1733732615160	-0.04714966	
1733732615161	-0.045166016	
1733732615162	-0.040283203	
1733732615163	-0.043258667	
1733732615164	-0.03883362	
1733732615165	-0.028686523	
1733732615166	-0.023117065	
1733732615167	-0.020599365	
1733732615168	-0.012969971	
1733732615169	5.340576E-4	
1733732615170	0.0073242188	
1733732615171	0.009841919	
1733732615172	0.012435913	
1733732615173	0.017089844	
1733732615174	0.02067566	
1733732615175	0.018463135	
1733732615176	0.017623901	
1733732615177	0.024719238	
1733732615178	0.028305054	
1733732615179	0.024337769	
1733732615180	0.025558472	
1733732615181	0.024261475	
1733732615182	0.017700195	
1733732615183	0.015640259	
1733732615184	0.01739502	
1733732615185	0.015182495	
1733732615186	0.007171631	
1733732615187	0.005645752	
1733732615188	-7.6293945E-5	
1733732615189	-0.0065612793	
1733732615190	-0.009307861	
1733732615191	-0.016174316	
1733732615192	-0.016784668	
1733732615193	-0.017318726	
1733732615194	-0.018463135	
1733732615195	-0.010375977	
1733732615196	-0.0076293945	
1733732615197	-0.011138916	
1733732615198	-0.0065612793	
1733732615199	-3.0517578E-4	
1733732615200	-0.001373291	
1733732615201	-0.004196167	
1733732615202	-0.016555786	
1733732615203	-0.020446777	
1733732615204	-0.00579834	
1733732615205	-0.004501343	
1733732615206	-0.0049591064	
1733732615207	0.007247925	
1733732615208	0.010528564	
1733732615209	0.0020599365	
1733732615210	0.0024414062	
1733732615211	0.015792847	
1733732615212	0.025100708	
1733732615213	0.028305054	
1733732615214	0.02067566	
1733732615215	0.014953613	
1733732615216	0.022354126	
1733732615217	0.019989014	
1733732615218	0.012588501	
1733732615219	0.016403198	
1733732615220	0.014877319	
1733732615221	0.007858276	
1733732615222	0.00831604	
1733732615223	0.0038146973	
1733732615224	-1.5258789E-4	
1733732615225	0.0012969971	
1733732615226	-0.009460449	
1733732615227	-0.016403198	
1733732615228	-0.01914978	
1733732615229	-0.023117065	
1733732615230	-0.026779175	
1733732615231	-0.03501892	
1733732615232	-0.029449463	
1733732615233	-0.018234253	
1733732615234	-0.014801025	
1733732615235	-0.009002686	
1733732615236	-0.0016021729	
1733732615237	0.0074005127	
1733732615238	0.006713867	
1733732615239	0.009689331	
1733732615240	0.016326904	
1733732615241	0.010604858	
1733732615242	0.00793457	
1733732615243	0.006942749	
1733732615244	0.0064086914	
1733732615245	0.005340576	
1733732615246	2.2888184E-4	
1733732615247	-0.0077819824	
1733732615248	-0.012512207	
1733732615249	-0.014266968	
1733732615250	-0.027313232	
1733732615251	-0.02998352	
1733732615252	-0.02067566	
1733732615253	-0.02128601	
1733732615254	-0.0033569336	
1733732615255	0.01914978	
1733732615256	0.013809204	
1733732615257	-0.002670288	
1733732615258	-0.005874634	
1733732615259	0.011138916	
1733732615260	0.016937256	
1733732615261	0.02166748	
1733732615262	0.039520264	
1733732615263	0.03883362	
1733732615264	0.03173828	
1733732615265	0.02609253	
1733732615266	0.012512207	
1733732615267	-5.340576E-4	
1733732615268	-0.005264282	
1733732615269	-3.0517578E-4	
1733732615270	-0.0032043457	
1733732615271	-0.0022888184	
1733732615272	0.0022888184	
1733732615273	-0.001373291	
1733732615274	-0.0065612793	
1733732615275	-0.020751953	
1733732615276	-0.018005371	
1733732615277	-0.008163452	
1733732615278	-0.010299683	
1733732615279	-0.0065612793	
1733732615280	-0.011062622	
1733732615281	-0.013885498	
1733732615282	-0.007019043	
1733732615283	-0.0090789795	
1733732615284	-0.015029907	
1733732615285	-0.0073242188	
1733732615286	-0.002822876	
1733732615287	-0.004425049	
1733732615288	-0.0064849854	
1733732615289	-0.009918213	
1733732615290	-0.0074768066	
1733732615291	-0.0063323975	
1733732615292	-0.012054443	
1733732615293	-0.010147095	
1733732615294	-0.011062622	
1733732615295	-0.0077056885	
1733732615296	-3.8146973E-4	
1733732615297	-0.0022888184	
1733732615298	7.6293945E-5	
1733732615299	0.001373291	
1733732615300	0.00289917	
1733732615301	0.006713867	
1733732615302	0.00869751	
1733732615303	0.014343262	
1733732615304	0.019454956	
1733732615305	0.02746582	
1733732615306	0.029678345	
1733732615307	0.028457642	
1733732615308	0.040283203	
1733732615309	0.03540039	
1733732615310	0.027008057	
1733732615311	0.028762817	
1733732615312	0.019302368	
1733732615313	0.012054443	
1733732615314	0.006713867	
1733732615315	0.0031280518	
1733732615316	-7.6293945E-5	
1733732615317	-0.009994507	
1733732615318	-0.017318726	
1733732615319	-0.019836426	
1733732615320	-0.018081665	
1733732615321	-0.02204895	
1733732615322	-0.025100708	
1733732615323	-0.02243042	
1733732615324	-0.026550293	
1733732615325	-0.027542114	
1733732615326	-0.027770996	
1733732615327	-0.0315094	
1733732615328	-0.026626587	
1733732615329	-0.01914978	
1733732615330	-0.014572144	
1733732615331	-0.009002686	
1733732615332	-0.0019836426	
1733732615333	0.01121521	
1733732615334	0.018310547	
1733732615335	0.012969971	
1733732615336	0.017852783	
1733732615337	0.01701355	
1733732615338	0.013656616	
1733732615339	0.013504028	
1733732615340	0.011672974	
1733732615341	0.027160645	
1733732615342	0.03250122	
1733732615343	0.016021729	
1733732615344	0.006713867	
1733732615345	0.0015258789	
1733732615346	-0.011520386	
1733732615347	-0.01373291	
1733732615348	-0.009460449	
1733732615349	-0.008773804	
1733732615350	-0.0022125244	
1733732615351	0.0032806396	
1733732615352	0.0050354004	
1733732615353	-8.392334E-4	
1733732615354	-0.0104522705	
1733732615355	-0.010223389	
1733732615356	-0.014266968	
1733732615357	-0.0118255615	
1733732615358	0.0018310547	
1733732615359	-0.0019836426	
1733732615360	-0.0032043457	
1733732615361	0.013122559	
1733732615362	0.019378662	
1733732615363	0.005645752	
1733732615364	-0.01701355	
1733732615365	-0.024795532	
1733732615366	-0.012664795	
1733732615367	-0.0016021729	
1733732615368	-1.5258789E-4	
1733732615369	0.0030517578	
1733732615370	-0.0074005127	
1733732615371	-0.04989624	
1733732615372	-0.06309509	
1733732615373	-0.009689331	
1733732615374	0.023117065	
1733732615375	0.025177002	
1733732615376	0.049591064	
1733732615377	0.0566864	
1733732615378	0.03868103	
1733732615379	0.016555786	
1733732615380	-0.0050354004	
1733732615381	-0.021209717	
1733732615382	-0.03829956	
1733732615383	-0.036468506	
1733732615384	-0.012969971	
1733732615385	0.014266968	
1733732615386	0.027542114	
1733732615387	0.018539429	
1733732615388	0.01777649	
1733732615389	0.022354126	
1733732615390	0.017852783	
1733732615391	0.0066375732	
1733732615392	-0.0061798096	
1733732615393	-0.0048065186	
1733732615394	-0.0061035156	
1733732615395	-0.01083374	
1733732615396	-0.0033569336	
1733732615397	0.0012969971	
1733732615398	7.6293945E-4	
1733732615399	-0.005264282	
1733732615400	-0.01121521	
1733732615401	-0.005874634	
1733732615402	-0.008239746	
1733732615403	-0.01663208	
1733732615404	-0.0048828125	
1733732615405	0.0020599365	
1733732615406	0.0034332275	
1733732615407	0.0076293945	
1733732615408	-0.0022888184	
1733732615409	-0.0036621094	
1733732615410	0.0060272217	
1733732615411	0.013885498	
1733732615412	0.013427734	
1733732615413	0.011672974	
1733732615414	0.012664795	
1733732615415	0.0064086914	
1733732615416	0.0034332275	
1733732615417	7.6293945E-4	
1733732615418	-0.0022888184	
1733732615419	-0.0076293945	
1733732615420	-0.016860962	
1733732615421	-0.020141602	
1733732615422	-0.008926392	
1733732615423	0.0035095215	
1733732615424	0.001449585	
1733732615425	-0.0015258789	
1733732615426	-2.2888184E-4	
1733732615427	0.0018310547	
1733732615428	0.0030517578	
1733732615429	-0.0051116943	
1733732615430	-0.013046265	
1733732615431	-0.005264282	
1733732615432	-0.0019836426	
1733732615433	-0.009918213	
1733732615434	-0.0090789795	
1733732615435	-0.008850098	
1733732615436	-0.006942749	
1733732615437	-0.0045776367	
1733732615438	0.00289917	
1733732615439	0.013809204	
1733732615440	0.0062561035	
1733732615441	0.016403198	
1733732615442	0.023803711	
1733732615443	0.0064849854	
1733732615444	-2.2888184E-4	
1733732615445	-0.006942749	
1733732615446	-0.0016021729	
1733732615447	0.0029754639	
1733732615448	0.009613037	
1733732615449	0.030441284	
1733732615450	0.01586914	
1733732615451	0.0011444092	
1733732615452	0.0030517578	
1733732615453	-0.0051116943	
1733732615454	-0.007247925	
1733732615455	-0.007171631	
1733732615456	-0.01373291	
1733732615457	-0.025405884	
1733732615458	-0.020217896	
1733732615459	-0.02571106	
1733732615460	-0.038223267	
1733732615461	-0.0132751465	
1733732615462	-0.008163452	
1733732615463	-0.013580322	
1733732615464	-0.005569458	
1733732615465	-0.005874634	
1733732615466	0.00831604	
1733732615467	0.010147095	
1733732615468	0.0060272217	
1733732615469	0.020904541	
1733732615470	0.02243042	
1733732615471	0.016098022	
1733732615472	0.018615723	
1733732615473	0.022354126	
1733732615474	0.02784729	
1733732615475	0.03189087	
1733732615476	0.039215088	
1733732615477	0.0340271	
1733732615478	0.009765625	
1733732615479	0.016403198	
1733732615480	0.018463135	
1733732615481	-0.024108887	
1733732615482	-0.05645752	
1733732615483	-0.061187744	
1733732615484	-0.06286621	
1733732615485	-0.0718689	
1733732615486	-0.05470276	
1733732615487	-0.00869751	
1733732615488	0.008010864	
1733732615489	0.030441284	
1733732615490	0.06072998	
1733732615491	0.055999756	
1733732615492	0.052871704	
1733732615493	0.02960205	
1733732615494	-7.6293945E-5	
1733732615495	-0.024719238	
1733732615496	-0.082092285	
1733732615497	-0.090026855	
1733732615498	-0.044403076	
1733732615499	-0.01449585	
1733732615500	0.025863647	
1733732615501	0.0617218	
1733732615502	0.07148743	
1733732615503	0.07545471	
1733732615504	0.07484436	
1733732615505	0.06752014	
1733732615506	0.042037964	
1733732615507	0.0035858154	
1733732615508	-0.03288269	
1733732615509	-0.07034302	
1733732615510	-0.10772705	
1733732615511	-0.1071167	
1733732615512	-0.042877197	
1733732615513	0.016784668	
1733732615514	0.043411255	
1733732615515	0.06317139	
1733732615516	0.041046143	
1733732615517	-0.019836426	
1733732615518	-0.051345825	
1733732615519	-0.037384033	
1733732615520	-0.03173828	
1733732615521	-0.051574707	
1733732615522	-0.05996704	
1733732615523	-0.035705566	
1733732615524	0.00869751	
1733732615525	0.04699707	
1733732615526	0.07461548	
1733732615527	0.084609985	
1733732615528	0.053634644	
1733732615529	0.007171631	
1733732615530	-0.014343262	
1733732615531	-0.010528564	
1733732615532	-0.0022888184	
1733732615533	0.020141602	
1733732615534	0.045394897	
1733732615535	0.05050659	
1733732615536	0.03982544	
1733732615537	0.018157959	
1733732615538	-6.1035156E-4	
1733732615539	-0.009918213	
1733732615540	-0.009231567	
1733732615541	-0.013122559	
1733732615542	-0.01449585	
1733732615543	-0.025482178	
1733732615544	-0.017547607	
1733732615545	0.021514893	
1733732615546	-0.04310608	
1733732615547	-0.10887146	
1733732615548	-0.051498413	
1733732615549	-0.03112793	
1733732615550	-0.060653687	
1733732615551	-0.08331299	
1733732615552	-0.049057007	
1733732615553	0.057678223	
1733732615554	0.069122314	
1733732615555	0.018539429	
1733732615556	0.04989624	
1733732615557	0.086746216	
1733732615558	0.07064819	
1733732615559	0.044326782	
1733732615560	0.0024414062	
1733732615561	-0.058746338	
1733732615562	-0.0818634	
1733732615563	-0.046157837	
1733732615564	-0.0032806396	
1733732615565	0.048980713	
1733732615566	0.11802673	
1733732615567	0.12168884	
1733732615568	0.06286621	
1733732615569	0.0017547607	
1733732615570	-0.044555664	
1733732615571	-0.080337524	
1733732615572	-0.1550293	
1733732615573	-0.20072937	
1733732615574	-0.110321045	
1733732615575	-0.022659302	
1733732615576	-0.018157959	
1733732615577	0.0104522705	
1733732615578	0.039367676	
1733732615579	0.0693512	
1733732615580	0.11703491	
1733732615581	0.10231018	
1733732615582	0.072250366	
1733732615583	0.06996155	
1733732615584	0.039215088	
1733732615585	0.015945435	
1733732615586	0.041732788	
1733732615587	0.06889343	
1733732615588	0.04386902	
1733732615589	-0.0064849854	
1733732615590	-0.011978149	
1733732615591	0.0020599365	
1733732615592	0.010299683	
1733732615593	0.015640259	
1733732615594	-0.01739502	
1733732615595	-0.04852295	
1733732615596	-0.08377075	
1733732615597	-0.10513306	
1733732615598	-0.06904602	
1733732615599	-0.046920776	
1733732615600	-0.026168823	
1733732615601	-0.010528564	
1733732615602	-0.044937134	
1733732615603	-0.06378174	
1733732615604	-0.04081726	
1733732615605	-0.026779175	
1733732615606	-0.023269653	
1733732615607	-0.009765625	
1733732615608	0.022125244	
1733732615609	0.05859375	
1733732615610	0.0390625	
1733732615611	0.005874634	
1733732615612	0.011520386	
1733732615613	0.019378662	
1733732615614	0.03578186	
1733732615615	0.05760193	
1733732615616	0.06515503	
1733732615617	0.036087036	
1733732615618	0.004119873	
1733732615619	0.010147095	
1733732615620	0.0019836426	
1733732615621	-0.008392334	
1733732615622	-0.043182373	
1733732615623	-0.07583618	
1733732615624	-0.0011444092	
1733732615625	0.059661865	
1733732615626	0.04989624	
1733732615627	0.05722046	
1733732615628	0.044784546	
1733732615629	-0.0016021729	
1733732615630	-0.027008057	
1733732615631	-0.04096985	
1733732615632	-0.07675171	
1733732615633	-0.09994507	
1733732615634	-0.09414673	
1733732615635	-0.03540039	
1733732615636	0.06309509	
1733732615637	0.07369995	
1733732615638	0.02960205	
1733732615639	0.016479492	
1733732615640	0.0061798096	
1733732615641	0.00541687	
1733732615642	-0.0037384033	
1733732615643	0.022888184	
1733732615644	0.08087158	
1733732615645	0.08644104	
1733732615646	0.06706238	
1733732615647	0.042800903	
1733732615648	0.04043579	
1733732615649	0.028076172	
1733732615650	-0.018920898	
1733732615651	-0.027008057	
1733732615652	-0.049972534	
1733732615653	-0.096206665	
1733732615654	-0.129776	
1733732615655	-0.14320374	
1733732615656	-0.04058838	
1733732615657	0.06477356	
1733732615658	0.07286072	
1733732615659	0.048065186	
1733732615660	-0.03112793	
1733732615661	-0.08087158	
1733732615662	-0.11871338	
1733732615663	-0.17242432	
1733732615664	-0.09979248	
1733732615665	-0.021438599	
1733732615666	-0.005264282	
1733732615667	0.039901733	
1733732615668	0.08804321	
1733732615669	0.111465454	
1733732615670	0.09475708	
1733732615671	0.07469177	
1733732615672	0.07385254	
1733732615673	0.056152344	
1733732615674	0.04951477	
1733732615675	0.04119873	
1733732615676	0.0047302246	
1733732615677	-0.010910034	
1733732615678	0.027999878	
1733732615679	0.06385803	
1733732615680	0.07102966	
1733732615681	0.07034302	
1733732615682	0.024108887	
1733732615683	-0.009231567	
1733732615684	-0.0037384033	
1733732615685	-0.06011963	
1733732615686	-0.102005005	
1733732615687	-0.06607056	
1733732615688	-0.04272461	
1733732615689	-0.016403198	
1733732615690	-0.005874634	
1733732615691	-0.038528442	
1733732615692	-0.05279541	
1733732615693	-0.06484985	
1733732615694	-0.0718689	
1733732615695	-0.06813049	
1733732615696	-0.0415802	
1733732615697	0.004348755	
1733732615698	0.010223389	
1733732615699	0.021896362	
1733732615700	0.041885376	
1733732615701	0.05050659	
1733732615702	0.054244995	
1733732615703	0.03845215	
1733732615704	0.05027771	
1733732615705	0.054473877	
1733732615706	0.015182495	
1733732615707	-0.010757446	
1733732615708	0.02128601	
1733732615709	0.032577515	
1733732615710	-0.055541992	
1733732615711	-0.10292053	
1733732615712	-0.06401062	
1733732615713	-0.013504028	
1733732615714	0.025024414	
1733732615715	0.030822754	
1733732615716	0.03265381	
1733732615717	0.029373169	
1733732615718	0.021209717	
1733732615719	0.021057129	
1733732615720	0.013427734	
1733732615721	0.011749268	
1733732615722	0.008621216	
1733732615723	0.0022888184	
1733732615724	0.0023651123	
1733732615725	9.1552734E-4	
1733732615726	0.0016784668	
1733732615727	-0.0032043457	
1733732615728	-0.005264282	
1733732615729	-0.005493164	
1733732615730	-0.014038086	
1733732615731	-0.015716553	
1733732615732	-0.011672974	
1733732615733	-0.016479492	
1733732615734	-0.022964478	
1733732615735	-0.013198853	
1733732615736	-0.0074005127	
1733732615737	-0.012054443	
1733732615738	-0.008392334	
1733732615739	-0.0075531006	
1733732615740	-0.004196167	
1733732615741	-0.0024414062	
1733732615742	-0.002746582	
1733732615743	0.0038909912	
1733732615744	0.0023651123	
1733732615745	7.6293945E-4	
1733732615746	8.392334E-4	
1733732615747	-0.0022125244	
1733732615748	0.001373291	
1733732615749	8.392334E-4	
1733732615750	0.0010681152	
1733732615751	0.0032043457	
1733732615752	0.0016784668	
1733732615753	0.005722046	
1733732615754	0.008392334	
1733732615755	0.008468628	
1733732615756	0.011138916	
1733732615757	0.010757446	
1733732615758	0.011062622	
1733732615759	0.019607544	
1733732615760	0.028686523	
1733732615761	0.027923584	
1733732615762	0.023651123	
1733732615763	0.029754639	
1733732615764	0.028152466	
1733732615765	0.023498535	
1733732615766	0.023803711	
1733732615767	0.013885498	
1733732615768	0.0048828125	
1733732615769	-0.004348755	
1733732615770	-0.017623901	
1733732615771	-0.02128601	
1733732615772	-0.03768921	
1733732615773	-0.049057007	
1733732615774	-0.050430298	
1733732615775	-0.05279541	
1733732615776	-0.043945312	
1733732615777	-0.03791809	
1733732615778	-0.030441284	
1733732615779	-0.030136108	
1733732615780	-0.027389526	
1733732615781	-0.018081665	
1733732615782	-0.012588501	
1733732615783	-0.0047302246	
1733732615784	0.0020599365	
1733732615785	0.007171631	
1733732615786	0.010375977	
1733732615787	0.012054443	
1733732615788	0.013885498	
1733732615789	0.009002686	
1733732615790	9.918213E-4	
1733732615791	-0.0034332275	
1733732615792	0.0076293945	
1733732615793	0.0132751465	
1733732615794	0.018310547	
1733732615795	0.0289917	
1733732615796	0.027542114	
1733732615797	0.03227234	
1733732615798	0.03036499	
1733732615799	0.028686523	
1733732615800	0.02861023	
1733732615801	0.023117065	
1733732615802	0.026321411	
1733732615803	0.02281189	
1733732615804	0.014801025	
1733732615805	0.011672974	
1733732615806	-0.0022125244	
1733732615807	-0.011978149	
1733732615808	-0.008392334	
1733732615809	-0.010223389	
1733732615810	-0.00869751	
1733732615811	0.0	
1733732615812	0.0012207031	
1733732615813	-0.004196167	
1733732615814	-0.0060272217	
1733732615815	-0.0077819824	
1733732615816	-0.01701355	
1733732615817	-0.025177002	
1733732615818	-0.020980835	
1733732615819	-0.0132751465	
1733732615820	-0.014801025	
1733732615821	-0.007019043	
1733732615822	-0.010223389	
1733732615823	-0.014038086	
1733732615824	-0.004043579	
1733732615825	-0.0037384033	
1733732615826	0.0038146973	
1733732615827	0.010986328	
1733732615828	0.010986328	
1733732615829	0.023880005	
1733732615830	0.020370483	
1733732615831	0.0118255615	
1733732615832	0.0049591064	
1733732615833	-0.007247925	
1733732615834	-0.016326904	
1733732615835	-0.02128601	
1733732615836	-0.016174316	
1733732615837	-0.014572144	
1733732615838	-0.0146484375	
1733732615839	-0.010604858	
1733732615840	-0.005340576	
1733732615841	-0.012130737	
1733732615842	-0.016326904	
1733732615843	-0.0048065186	
1733732615844	-0.004043579	
1733732615845	0.0032806396	
1733732615846	0.011138916	
1733732615847	0.014038086	
1733732615848	0.009765625	
1733732615849	0.0051879883	
1733732615850	0.010147095	
1733732615851	0.009536743	
1733732615852	0.002822876	
1733732615853	-0.001373291	
1733732615854	-0.004501343	
1733732615855	-0.013046265	
1733732615856	-0.016479492	
1733732615857	-0.021209717	
1733732615858	-0.022583008	
1733732615859	-0.019454956	
1733732615860	-0.014801025	
1733732615861	-0.00869751	
1733732615862	-0.0033569336	
1733732615863	0.015106201	
1733732615864	0.015106201	
1733732615865	0.017700195	
1733732615866	0.024795532	
1733732615867	0.024261475	
1733732615868	0.0315094	
1733732615869	0.02708435	
1733732615870	0.032348633	
1733732615871	0.025177002	
1733732615872	0.010986328	
1733732615873	0.008468628	
1733732615874	0.0064849854	
1733732615875	-0.001449585	
1733732615876	-0.0035858154	
1733732615877	-0.0066375732	
1733732615878	-0.013122559	
1733732615879	-0.009231567	
1733732615880	-0.0146484375	
1733732615881	-0.008010864	
1733732615882	-0.0033569336	
1733732615883	-0.014038086	
1733732615884	-0.018005371	
1733732615885	-0.022125244	
1733732615886	-0.0146484375	
1733732615887	-0.007858276	
1733732615888	-0.015716553	
1733732615889	-0.016708374	
1733732615890	-0.0034332275	
1733732615891	-0.0066375732	
1733732615892	0.0045776367	
1733732615893	0.0036621094	
1733732615894	-0.00289917	
1733732615895	0.004119873	
1733732615896	0.0063323975	
1733732615897	0.014572144	
1733732615898	0.026550293	
1733732615899	0.01914978	
1733732615900	0.027313232	
1733732615901	0.033340454	
1733732615902	0.023040771	
1733732615903	0.025558472	
1733732615904	0.0132751465	
1733732615905	-0.0025939941	
1733732615906	0.0025939941	
1733732615907	-0.009460449	
1733732615908	6.866455E-4	
1733732615909	0.010375977	
1733732615910	-0.004196167	
1733732615911	0.0064086914	
1733732615912	-4.5776367E-4	
1733732615913	-0.0104522705	
1733732615914	-0.016403198	
1733732615915	-0.024414062	
1733732615916	-0.01914978	
1733732615917	-0.034179688	
1733732615918	-0.037612915	
1733732615919	-0.03074646	
1733732615920	-0.04135132	
1733732615921	-0.03326416	
1733732615922	-0.025405884	
1733732615923	-0.012054443	
1733732615924	-0.010223389	
1733732615925	-0.013198853	
1733732615926	0.0038146973	
1733732615927	0.004043579	
1733732615928	0.0065612793	
1733732615929	0.009841919	
1733732615930	0.010528564	
1733732615931	0.015716553	
1733732615932	0.013427734	
1733732615933	0.016098022	
1733732615934	0.019607544	
1733732615935	0.01625061	
1733732615936	0.02532959	
1733732615937	0.021820068	
1733732615938	0.02029419	
1733732615939	0.028381348	
1733732615940	0.024337769	
1733732615941	0.022354126	
1733732615942	0.016708374	
1733732615943	0.010681152	
1733732615944	0.0022888184	
1733732615945	-0.0022888184	
1733732615946	-0.0032806396	
1733732615947	-0.0062561035	
1733732615948	-0.004043579	
1733732615949	0.0025939941	
1733732615950	-0.0025177002	
1733732615951	-0.015716553	
1733732615952	-0.012435913	
1733732615953	-0.010375977	
1733732615954	-0.018920898	
1733732615955	-0.023117065	
1733732615956	-0.02128601	
1733732615957	-0.015411377	
1733732615958	-0.015563965	
1733732615959	-0.01991272	
1733732615960	-0.020828247	
1733732615961	-0.02204895	
1733732615962	-0.01838684	
1733732615963	-0.009155273	
1733732615964	-0.010757446	
1733732615965	-0.015792847	
1733732615966	-0.012741089	
1733732615967	-0.0025939941	
1733732615968	0.007247925	
1733732615969	-8.392334E-4	
1733732615970	0.002746582	
1733732615971	0.012588501	
1733732615972	0.0037384033	
1733732615973	0.0061035156	
1733732615974	0.008926392	
1733732615975	0.007019043	
1733732615976	0.019607544	
1733732615977	0.01991272	
1733732615978	0.017242432	
1733732615979	0.029067993	
1733732615980	0.02784729	
1733732615981	0.023422241	
1733732615982	0.022659302	
1733732615983	0.020065308	
1733732615984	0.021438599	
1733732615985	0.010910034	
1733732615986	0.006790161	
1733732615987	0.0	
1733732615988	-0.012283325	
1733732615989	-0.0032806396	
1733732615990	0.0077819824	
1733732615991	0.004501343	
1733732615992	0.004501343	
1733732615993	0.0032043457	
1733732615994	-8.392334E-4	
1733732615995	-0.00541687	
1733732615996	-0.0048828125	
1733732615997	0.0064849854	
1733732615998	0.009307861	
1733732615999	0.020599365	
1733732616000	0.024795532	
1733732616001	0.023956299	
1733732616002	0.030288696	
1733732616003	0.026626587	
1733732616004	0.020751953	
1733732616005	0.00579834	
1733732616006	-0.009994507	
1733732616007	-0.018539429	
1733732616008	-0.03227234	
1733732616009	-0.044174194	
1733732616010	-0.052871704	
1733732616011	-0.052642822	
1733732616012	-0.05996704	
1733732616013	-0.0756073	
1733732616014	-0.07095337	
1733732616015	-0.06668091	
1733732616016	-0.06614685	
1733732616017	-0.05050659	
1733732616018	-0.04386902	
1733732616019	-0.037231445	
1733732616020	-0.017318726	
1733732616021	-0.008163452	
1733732616022	-0.0051879883	
1733732616023	0.012664795	
1733732616024	0.020828247	
1733732616025	0.026855469	
1733732616026	0.044174194	
1733732616027	0.034561157	
1733732616028	0.028457642	
1733732616029	0.037612915	
1733732616030	0.04020691	
1733732616031	0.05050659	
1733732616032	0.053482056	
1733732616033	0.042114258	
1733732616034	0.041046143	
1733732616035	0.0440979	
1733732616036	0.04219055	
1733732616037	0.03440857	
1733732616038	0.03074646	
1733732616039	0.027542114	
1733732616040	0.015487671	
1733732616041	0.01121521	
1733732616042	0.008850098	
1733732616043	0.005722046	
1733732616044	0.0063323975	
1733732616045	0.004425049	
1733732616046	0.0032806396	
1733732616047	0.0046539307	
1733732616048	0.005569458	
1733732616049	-0.004119873	
1733732616050	-0.012969971	
1733732616051	-0.009689331	
1733732616052	-0.013504028	
1733732616053	-0.027313232	
1733732616054	-0.031814575	
1733732616055	-0.031433105	
1733732616056	-0.03593445	
1733732616057	-0.03326416	
1733732616058	-0.02456665	
1733732616059	-0.021514893	
1733732616060	-0.02418518	
1733732616061	-0.023803711	
1733732616062	-0.018081665	
1733732616063	-0.017547607	
1733732616064	-0.01663208	
1733732616065	-0.014038086	
1733732616066	-0.014801025	
1733732616067	-0.010986328	
1733732616068	7.6293945E-5	
1733732616069	0.008010864	
1733732616070	0.0063323975	
1733732616071	0.012741089	
1733732616072	0.02166748	
1733732616073	0.020141602	
1733732616074	0.027008057	
1733732616075	0.038223267	
1733732616076	0.040512085	
1733732616077	0.035476685	
1733732616078	0.027542114	
1733732616079	0.011444092	
1733732616080	-0.0066375732	
1733732616081	-0.026550293	
1733732616082	-0.04875183	
1733732616083	-0.053024292	
1733732616084	-0.054626465	
1733732616085	-0.060424805	
1733732616086	-0.05569458	
1733732616087	-0.055618286	
1733732616088	-0.047912598	
1733732616089	-0.031051636	
1733732616090	-0.017929077	
1733732616091	-0.0025939941	
1733732616092	0.0051116943	
1733732616093	0.012588501	
1733732616094	0.018844604	
1733732616095	0.029525757	
1733732616096	0.04547119	
1733732616097	0.046920776	
1733732616098	0.05203247	
1733732616099	0.066223145	
1733732616100	0.07003784	
1733732616101	0.07118225	
1733732616102	0.05996704	
1733732616103	0.045013428	
1733732616104	0.0440979	
1733732616105	0.041885376	
1733732616106	0.033798218	
1733732616107	0.03326416	
1733732616108	0.031051636	
1733732616109	0.021133423	
1733732616110	0.012893677	
1733732616111	0.005645752	
1733732616112	0.0035095215	
1733732616113	-5.340576E-4	
1733732616114	-0.01838684	
1733732616115	-0.04333496	
1733732616116	-0.068359375	
1733732616117	-0.08300781	
1733732616118	-0.07652283	
1733732616119	-0.06286621	
1733732616120	-0.048675537	
1733732616121	-0.044403076	
1733732616122	-0.040664673	
1733732616123	-0.036621094	
1733732616124	-0.035858154	
1733732616125	-0.028762817	
1733732616126	-0.026550293	
1733732616127	-0.02281189	
1733732616128	-0.009155273	
1733732616129	-0.00289917	
1733732616130	-0.004196167	
1733732616131	-0.0022125244	
1733732616132	0.0022888184	
1733732616133	0.010147095	
1733732616134	0.013961792	
1733732616135	0.015716553	
1733732616136	0.019683838	
1733732616137	0.020523071	
1733732616138	0.017471313	
1733732616139	0.018157959	
1733732616140	0.026016235	
1733732616141	0.03112793	
1733732616142	0.028686523	
1733732616143	0.027008057	
1733732616144	0.027923584	
1733732616145	0.02670288	
1733732616146	0.02166748	
1733732616147	0.014419556	
1733732616148	0.0036621094	
1733732616149	0.008850098	
1733732616150	0.012207031	
1733732616151	0.004043579	
1733732616152	0.011444092	
1733732616153	0.0064086914	
1733732616154	-0.0019836426	
1733732616155	0.0024414062	
1733732616156	-0.00831604	
1733732616157	-0.01449585	
1733732616158	-0.0073242188	
1733732616159	-0.01335144	
1733732616160	-0.01625061	
1733732616161	-0.018005371	
1733732616162	-0.012054443	
1733732616163	0.0010681152	
1733732616164	-0.011520386	
1733732616165	-0.022201538	
1733732616166	-9.918213E-4	
1733732616167	0.009841919	
1733732616168	-0.00289917	
1733732616169	-0.0063323975	
1733732616170	-0.0033569336	
1733732616171	0.0011444092	
1733732616172	-0.0022125244	
1733732616173	-0.024719238	
1733732616174	-0.043640137	
1733732616175	-0.05722046	
1733732616176	-0.08026123	
1733732616177	-0.0831604	
1733732616178	-0.066833496	
1733732616179	-0.048446655	
1733732616180	-0.009460449	
1733732616181	0.028381348	
1733732616182	0.04737854	
1733732616183	0.07400513	
1733732616184	0.09719849	
1733732616185	0.11138916	
1733732616186	0.11009216	
1733732616187	0.099868774	
1733732616188	0.070877075	
1733732616189	0.049209595	
1733732616190	0.04585266	
1733732616191	0.04966736	
1733732616192	0.052642822	
1733732616193	0.032348633	
1733732616194	-0.0035095215	
1733732616195	-0.029754639	
1733732616196	-0.02746582	
1733732616197	-0.024414062	
1733732616198	-0.026168823	
1733732616199	-0.027313232	
1733732616200	-0.04676819	
1733732616201	-0.05744934	
1733732616202	-0.06072998	
1733732616203	-0.07644653	
1733732616204	-0.08850098	
1733732616205	-0.08293152	
1733732616206	-0.06942749	
1733732616207	-0.05859375	
1733732616208	-0.034332275	
1733732616209	-0.013198853	
1733732616210	-0.012054443	
1733732616211	-0.019989014	
1733732616212	-0.026168823	
1733732616213	-0.01876831	
1733732616214	-0.01121521	
1733732616215	-0.0018310547	
1733732616216	0.014724731	
1733732616217	0.021972656	
1733732616218	0.033798218	
1733732616219	0.033416748	
1733732616220	0.021972656	
1733732616221	0.026397705	
1733732616222	0.036468506	
1733732616223	0.05836487	
1733732616224	0.07873535	
1733732616225	0.069503784	
1733732616226	0.034179688	
1733732616227	-0.010757446	
1733732616228	-0.027618408	
1733732616229	-0.012664795	
1733732616230	0.0021362305	
1733732616231	0.015945435	
1733732616232	0.024719238	
1733732616233	0.026855469	
1733732616234	0.026397705	
1733732616235	0.029449463	
1733732616236	0.031051636	
1733732616237	0.023345947	
1733732616238	0.010223389	
1733732616239	0.0034332275	
1733732616240	-3.8146973E-4	
1733732616241	-0.007171631	
1733732616242	-0.0037384033	
1733732616243	-0.0017547607	
1733732616244	-0.013961792	
1733732616245	-0.019378662	
1733732616246	-0.022735596	
1733732616247	-0.03112793	
1733732616248	-0.030288696	
1733732616249	-0.013885498	
1733732616250	-8.392334E-4	
1733732616251	-0.00289917	
1733732616252	0.0010681152	
1733732616253	0.011291504	
1733732616254	0.0118255615	
1733732616255	0.005569458	
1733732616256	0.006866455	
1733732616257	0.0017547607	
1733732616258	-0.027542114	
1733732616259	-0.047607422	
1733732616260	-0.04676819	
1733732616261	-0.049362183	
1733732616262	-0.050125122	
1733732616263	-0.03929138	
1733732616264	-0.029220581	
1733732616265	-0.022506714	
1733732616266	-0.011138916	
1733732616267	-0.008773804	
1733732616268	-0.0076293945	
1733732616269	7.6293945E-4	
1733732616270	-7.6293945E-4	
1733732616271	-0.0033569336	
1733732616272	0.0017547607	
1733732616273	0.010147095	
1733732616274	0.019607544	
1733732616275	0.020828247	
1733732616276	0.020828247	
1733732616277	0.030822754	
1733732616278	0.041885376	
1733732616279	0.04852295	
1733732616280	0.056762695	
1733732616281	0.05859375	
1733732616282	0.049972534	
1733732616283	0.03807068	
1733732616284	0.031280518	
1733732616285	0.027236938	
1733732616286	0.014038086	
1733732616287	0.00289917	
1733732616288	-0.0073242188	
1733732616289	-0.015487671	
1733732616290	-0.016403198	
1733732616291	-0.02166748	
1733732616292	-0.024642944	
1733732616293	-0.021438599	
1733732616294	-0.017929077	
1733732616295	-0.01914978	
1733732616296	-0.014190674	
1733732616297	-0.0064086914	
1733732616298	-0.008544922	
1733732616299	-0.0029754639	
1733732616300	0.021438599	
1733732616301	0.03440857	
1733732616302	0.02708435	
1733732616303	0.014801025	
1733732616304	0.006713867	
1733732616305	-0.0021362305	
1733732616306	-0.032806396	
1733732616307	-0.063323975	
1733732616308	-0.07606506	
1733732616309	-0.09262085	
1733732616310	-0.10848999	
1733732616311	-0.108947754	
1733732616312	-0.09361267	
1733732616313	-0.07347107	
1733732616314	-0.045776367	
1733732616315	-0.027618408	
1733732616316	-0.008468628	
1733732616317	0.015487671	
1733732616318	0.036392212	
1733732616319	0.050430298	
1733732616320	0.053100586	
1733732616321	0.05859375	
1733732616322	0.06561279	
1733732616323	0.070114136	
1733732616324	0.07461548	
1733732616325	0.074920654	
1733732616326	0.07713318	
1733732616327	0.07720947	
1733732616328	0.07423401	
1733732616329	0.07255554	
1733732616330	0.06767273	
1733732616331	0.06340027	
1733732616332	0.052490234	
1733732616333	0.032806396	
1733732616334	0.022201538	
1733732616335	0.0104522705	
1733732616336	-0.004425049	
1733732616337	-0.0062561035	
1733732616338	-0.0032043457	
1733732616339	-0.0066375732	
1733732616340	-0.018081665	
1733732616341	-0.032730103	
1733732616342	-0.039138794	
1733732616343	-0.040359497	
1733732616344	-0.041503906	
1733732616345	-0.050354004	
1733732616346	-0.058059692	
1733732616347	-0.048294067	
1733732616348	-0.05340576	
1733732616349	-0.061264038	
1733732616350	-0.056533813	
1733732616351	-0.054244995	
1733732616352	-0.047912598	
1733732616353	-0.044784546	
1733732616354	-0.04081726	
1733732616355	-0.033187866	
1733732616356	-0.027160645	
1733732616357	-0.021362305	
1733732616358	-0.015563965	
1733732616359	-0.008773804	
1733732616360	-0.0047302246	
1733732616361	0.0016021729	
1733732616362	0.009460449	
1733732616363	0.017623901	
1733732616364	0.028152466	
1733732616365	0.034332275	
1733732616366	0.0365448	
1733732616367	0.034866333	
1733732616368	0.034942627	
1733732616369	0.025558472	
1733732616370	0.0025177002	
1733732616371	0.0016784668	
1733732616372	0.03135681	
1733732616373	0.042037964	
1733732616374	0.01739502	
1733732616375	0.009765625	
1733732616376	0.01586914	
1733732616377	0.019302368	
1733732616378	0.029373169	
1733732616379	0.0365448	
1733732616380	0.04219055	
1733732616381	0.022277832	
1733732616382	-0.0061798096	
1733732616383	-0.008163452	
1733732616384	-0.009613037	
1733732616385	0.0061798096	
1733732616386	0.02998352	
1733732616387	0.019302368	
1733732616388	-9.1552734E-4	
1733732616389	-0.01625061	
1733732616390	-0.026397705	
1733732616391	-0.007019043	
1733732616392	0.013885498	
1733732616393	0.001449585	
1733732616394	-0.0050354004	
1733732616395	-0.005645752	
1733732616396	-0.02319336	
1733732616397	-0.032577515	
1733732616398	-0.06309509	
1733732616399	-0.10536194	
1733732616400	-0.091552734	
1733732616401	-0.044708252	
1733732616402	0.002822876	
1733732616403	0.01449585	
1733732616404	0.009460449	
1733732616405	0.016021729	
1733732616406	0.008163452	
1733732616407	9.1552734E-4	
1733732616408	0.0018310547	
1733732616409	0.0076293945	
1733732616410	0.018463135	
1733732616411	0.017166138	
1733732616412	0.021591187	
1733732616413	0.025787354	
1733732616414	0.024719238	
1733732616415	0.029830933	
1733732616416	0.029678345	
1733732616417	0.029525757	
1733732616418	0.025253296	
1733732616419	0.030899048	
1733732616420	0.032806396	
1733732616421	0.023651123	
1733732616422	0.019302368	
1733732616423	0.00793457	
1733732616424	0.006942749	
1733732616425	0.0032806396	
1733732616426	-0.006866455	
1733732616427	-0.0032043457	
1733732616428	-8.392334E-4	
1733732616429	-9.1552734E-4	
1733732616430	-0.008621216	
1733732616431	-0.016860962	
1733732616432	-0.020217896	
1733732616433	-0.027160645	
1733732616434	-0.030593872	
1733732616435	-0.029296875	
1733732616436	-0.024795532	
1733732616437	-0.022125244	
1733732616438	-0.023269653	
1733732616439	-0.01991272	
1733732616440	-0.015335083	
1733732616441	-0.0340271	
1733732616442	-0.03593445	
1733732616443	-0.005722046	
1733732616444	-0.0031280518	
1733732616445	0.002822876	
1733732616446	0.019760132	
1733732616447	0.04272461	
1733732616448	0.08224487	
1733732616449	0.07850647	
1733732616450	0.05180359	
1733732616451	0.026855469	
1733732616452	-0.01335144	
1733732616453	-0.03791809	
1733732616454	-0.0617218	
1733732616455	-0.08117676	
1733732616456	-0.07972717	
1733732616457	-0.083999634	
1733732616458	-0.075683594	
1733732616459	-0.066833496	
1733732616460	-0.057678223	
1733732616461	-0.03517151	
1733732616462	-0.019454956	
1733732616463	-0.0019836426	
1733732616464	0.01701355	
1733732616465	0.031967163	
1733732616466	0.045776367	
1733732616467	0.059661865	
1733732616468	0.070495605	
1733732616469	0.07331848	
1733732616470	0.07217407	
1733732616471	0.07026672	
1733732616472	0.063934326	
1733732616473	0.057907104	
1733732616474	0.06072998	
1733732616475	0.07133484	
1733732616476	0.06851196	
1733732616477	0.050811768	
1733732616478	0.040664673	
1733732616479	0.023880005	
1733732616480	0.0146484375	
1733732616481	0.020370483	
1733732616482	0.0073242188	
1733732616483	1.5258789E-4	
1733732616484	9.918213E-4	
1733732616485	-0.014801025	
1733732616486	-0.03265381	
1733732616487	-0.04966736	
1733732616488	-0.05760193	
1733732616489	-0.06568909	
1733732616490	-0.076828	
1733732616491	-0.08895874	
1733732616492	-0.091552734	
1733732616493	-0.08117676	
1733732616494	-0.059890747	
1733732616495	-0.046463013	
1733732616496	-0.042495728	
1733732616497	-0.02319336	
1733732616498	-0.0034332275	
1733732616499	-0.006713867	
1733732616500	-0.004043579	
1733732616501	0.011291504	
1733732616502	0.0037384033	
1733732616503	0.0020599365	
1733732616504	0.018692017	
1733732616505	0.02609253	
1733732616506	0.025634766	
1733732616507	0.021743774	
1733732616508	0.025405884	
1733732616509	0.020370483	
1733732616510	0.014572144	
1733732616511	0.013961792	
1733732616512	0.0074768066	
1733732616513	0.013656616	
1733732616514	0.014038086	
1733732616515	0.009460449	
1733732616516	0.013656616	
1733732616517	0.010147095	
1733732616518	0.0066375732	
1733732616519	0.011062622	
1733732616520	0.014038086	
1733732616521	0.010986328	
1733732616522	0.0051879883	
1733732616523	0.0032043457	
1733732616524	-5.340576E-4	
1733732616525	7.6293945E-5	
1733732616526	0.015716553	
1733732616527	0.020370483	
1733732616528	0.016326904	
1733732616529	0.015182495	
1733732616530	0.008087158	
1733732616531	0.009918213	
1733732616532	0.017166138	
1733732616533	0.008010864	
1733732616534	0.0012207031	
1733732616535	0.0022125244	
1733732616536	-0.011520386	
1733732616537	-0.023040771	
1733732616538	-0.017242432	
1733732616539	-0.013961792	
1733732616540	-0.015411377	
1733732616541	-0.02029419	
1733732616542	-0.023345947	
1733732616543	-0.021591187	
1733732616544	-0.025558472	
1733732616545	-0.02960205	
1733732616546	-0.01701355	
1733732616547	0.0045776367	
1733732616548	-9.918213E-4	
1733732616549	-0.0029754639	
1733732616550	0.0049591064	
1733732616551	-0.0035858154	
1733732616552	3.8146973E-4	
1733732616553	0.0022125244	
1733732616554	1.5258789E-4	
1733732616555	0.010223389	
1733732616556	0.010375977	
1733732616557	0.006866455	
1733732616558	-0.0010681152	
1733732616559	-0.008392334	
1733732616560	0.0032806396	
1733732616561	-0.002822876	
1733732616562	-0.018844604	
1733732616563	-0.02128601	
1733732616564	-0.022735596	
1733732616565	-0.017623901	
1733732616566	0.004425049	
1733732616567	0.037231445	
1733732616568	0.06851196	
1733732616569	0.062561035	
1733732616570	0.032806396	
1733732616571	0.020523071	
1733732616572	0.015106201	
1733732616573	0.008163452	
1733732616574	-0.027770996	
1733732616575	-0.055770874	
1733732616576	-0.008468628	
1733732616577	0.032348633	
1733732616578	0.030441284	
1733732616579	0.025787354	
1733732616580	0.031585693	
1733732616581	0.04425049	
1733732616582	0.024414062	
1733732616583	-0.0045776367	
1733732616584	-0.024108887	
1733732616585	-0.0667572	
1733732616586	-0.078811646	
1733732616587	-0.04966736	
1733732616588	-0.034942627	
1733732616589	-0.0077819824	
1733732616590	0.008850098	
1733732616591	-0.013961792	
1733732616592	-0.015029907	
1733732616593	-0.020065308	
1733732616594	-0.040359497	
1733732616595	-0.028533936	
1733732616596	-0.032806396	
1733732616597	-0.060043335	
1733732616598	-0.083847046	
1733732616599	-0.034713745	
1733732616600	0.08995056	
1733732616601	0.11917114	
1733732616602	0.080566406	
1733732616603	0.07766724	
1733732616604	0.08560181	
1733732616605	0.098724365	
1733732616606	0.09674072	
1733732616607	0.079956055	
1733732616608	0.05493164	
1733732616609	0.011749268	
1733732616610	-0.04310608	
1733732616611	-0.11627197	
1733732616612	-0.14778137	
1733732616613	-0.06866455	
1733732616614	-9.918213E-4	
1733732616615	-0.019607544	
1733732616616	-0.018920898	
1733732616617	-0.015411377	
1733732616618	-0.04699707	
1733732616619	-0.06271362	
1733732616620	-0.043182373	
1733732616621	-0.012207031	
1733732616622	0.0036621094	
1733732616623	0.031280518	
1733732616624	0.03303528	
1733732616625	0.002746582	
1733732616626	0.004348755	
1733732616627	0.0029754639	
1733732616628	0.006790161	
1733732616629	0.034942627	
1733732616630	0.031051636	
1733732616631	0.02670288	
1733732616632	0.03364563	
1733732616633	0.01121521	
1733732616634	-0.0032806396	
1733732616635	0.0050354004	
1733732616636	0.008850098	
1733732616637	0.0021362305	
1733732616638	-0.0048065186	
1733732616639	0.002746582	
1733732616640	0.0090789795	
1733732616641	-0.012207031	
1733732616642	-0.034942627	
1733732616643	-0.032730103	
1733732616644	0.001449585	
1733732616645	0.036697388	
1733732616646	0.018692017	
1733732616647	-0.029754639	
1733732616648	-0.066604614	
1733732616649	-0.06851196	
1733732616650	-0.08468628	
1733732616651	-0.10055542	
1733732616652	-0.013198853	
1733732616653	0.044021606	
1733732616654	0.046310425	
1733732616655	0.10360718	
1733732616656	0.12199402	
1733732616657	0.07659912	
1733732616658	0.012435913	
1733732616659	-0.026779175	
1733732616660	0.021972656	
1733732616661	0.07644653	
1733732616662	0.056915283	
1733732616663	0.021362305	
1733732616664	0.0029754639	
1733732616665	-0.027542114	
1733732616666	-0.05218506	
1733732616667	-0.028381348	
1733732616668	-0.0030517578	
1733732616669	-0.014877319	
1733732616670	-0.021820068	
1733732616671	-0.03135681	
1733732616672	-0.04058838	
1733732616673	-0.037078857	
1733732616674	-0.036087036	
1733732616675	-0.018157959	
1733732616676	0.004501343	
1733732616677	4.5776367E-4	
1733732616678	-0.022888184	
1733732616679	-0.012207031	
1733732616680	0.016784668	
1733732616681	0.007858276	
1733732616682	-0.014572144	
1733732616683	-0.016555786	
1733732616684	0.024261475	
1733732616685	0.023727417	
1733732616686	-0.02067566	
1733732616687	0.0104522705	
1733732616688	0.024490356	
1733732616689	-0.0066375732	
1733732616690	0.005874634	
1733732616691	0.035476685	
1733732616692	0.06820679	
1733732616693	0.050735474	
1733732616694	-0.008468628	
1733732616695	-0.0554657	
1733732616696	-0.08148193	
1733732616697	-0.035476685	
1733732616698	0.015106201	
1733732616699	0.022735596	
1733732616700	0.0064849854	
1733732616701	-0.008239746	
1733732616702	0.010681152	
1733732616703	0.02532959	
1733732616704	0.050964355	
1733732616705	0.04798889	
1733732616706	0.006942749	
1733732616707	0.0045776367	
1733732616708	-0.007095337	
1733732616709	0.01083374	
1733732616710	0.057678223	
1733732616711	0.019760132	
1733732616712	-0.01159668	
1733732616713	0.011367798	
1733732616714	0.034942627	
1733732616715	0.043411255	
1733732616716	-0.013885498	
1733732616717	-0.06690979	
1733732616718	-0.03425598	
1733732616719	-0.035324097	
1733732616720	-0.091552734	
1733732616721	-0.11123657	
1733732616722	-0.15853882	
1733732616723	-0.22026062	
1733732616724	-0.17173767	
1733732616725	-0.053710938	
1733732616726	0.02029419	
1733732616727	0.070114136	
1733732616728	0.12893677	
1733732616729	0.15464783	
1733732616730	0.17654419	
1733732616731	0.16479492	
1733732616732	0.11253357	
1733732616733	0.08377075	
1733732616734	0.025634766	
1733732616735	-0.06210327	
1733732616736	-0.09963989	
1733732616737	-0.04714966	
1733732616738	0.05088806	
1733732616739	0.11116028	
1733732616740	0.09338379	
1733732616741	0.03517151	
1733732616742	-0.013427734	
1733732616743	-0.038528442	
1733732616744	-0.03593445	
1733732616745	-0.026473999	
1733732616746	-0.016937256	
1733732616747	-0.0074005127	
1733732616748	-0.015640259	
1733732616749	-0.03517151	
1733732616750	-0.02998352	
1733732616751	-0.008163452	
1733732616752	-0.010223389	
1733732616753	-0.036849976	
1733732616754	-0.09162903	
1733732616755	-0.1473999	
1733732616756	-0.15220642	
1733732616757	-0.12107849	
1733732616758	-0.0289917	
1733732616759	0.0541687	
1733732616760	0.03929138	
1733732616761	0.03944397	
1733732616762	0.02861023	
1733732616763	0.01701355	
1733732616764	0.081100464	
1733732616765	0.103759766	
1733732616766	0.089263916	
1733732616767	0.08232117	
1733732616768	0.0579834	
1733732616769	0.052261353	
1733732616770	0.044784546	
1733732616771	0.023269653	
1733732616772	0.01586914	
1733732616773	0.008850098	
1733732616774	6.866455E-4	
1733732616775	-0.009689331	
1733732616776	-0.015258789	
1733732616777	-0.015335083	
1733732616778	-0.024108887	
1733732616779	-0.032958984	
1733732616780	-0.040740967	
1733732616781	-0.03692627	
1733732616782	-0.02670288	
1733732616783	-0.020446777	
1733732616784	-0.016860962	
1733732616785	-0.02670288	
1733732616786	-0.025100708	
1733732616787	-0.017471313	
1733732616788	-0.014190674	
1733732616789	-0.0077819824	
1733732616790	-0.012054443	
1733732616791	-0.01083374	
1733732616792	-0.007247925	
1733732616793	-0.004196167	
1733732616794	0.0030517578	
1733732616795	0.0022888184	
1733732616796	0.0036621094	
1733732616797	0.005722046	
1733732616798	0.0060272217	
1733732616799	0.012207031	
1733732616800	0.013198853	
1733732616801	0.009384155	
1733732616802	0.011062622	
1733732616803	0.008392334	
1733732616804	0.008163452	
1733732616805	0.014343262	
1733732616806	0.013580322	
1733732616807	0.013046265	
1733732616808	0.012817383	
1733732616809	0.008392334	
1733732616810	0.0038146973	
1733732616811	0.0012969971	
1733732616812	-0.0020599365	
1733732616813	3.8146973E-4	
1733732616814	0.003967285	
1733732616815	-7.6293945E-5	
1733732616816	-0.0016021729	
1733732616817	-0.0020599365	
1733732616818	0.0025939941	
1733732616819	-9.1552734E-4	
1733732616820	-0.0066375732	
1733732616821	0.002822876	
1733732616822	0.0015258789	
1733732616823	-0.004425049	
1733732616824	-0.008163452	
1733732616825	-0.012359619	
1733732616826	-0.0063323975	
1733732616827	-0.0051879883	
1733732616828	-0.006942749	
1733732616829	-0.0016784668	
1733732616830	-0.0022888184	
1733732616831	-0.005569458	
1733732616832	-0.001449585	
1733732616833	1.5258789E-4	
1733732616834	-0.004119873	
1733732616835	-2.2888184E-4	
1733732616836	0.0016784668	
1733732616837	-6.866455E-4	
1733732616838	0.001449585	
1733732616839	-0.008163452	
1733732616840	-0.00831604	
1733732616841	-0.0032043457	
1733732616842	-0.010147095	
1733732616843	2.2888184E-4	
1733732616844	0.007095337	
1733732616845	0.0010681152	
1733732616846	-9.1552734E-4	
1733732616847	-0.0051116943	
1733732616848	-0.0025939941	
1733732616849	-0.0019073486	
1733732616850	-0.009765625	
1733732616851	-0.0064086914	
1733732616852	0.0029754639	
1733732616853	0.012054443	
1733732616854	0.022125244	
1733732616855	0.034942627	
1733732616856	0.054855347	
1733732616857	0.059280396	
1733732616858	0.048294067	
1733732616859	0.043792725	
1733732616860	0.036468506	
1733732616861	0.01991272	
1733732616862	8.392334E-4	
1733732616863	-0.012893677	
1733732616864	-0.029373169	
1733732616865	-0.043563843	
1733732616866	-0.04699707	
1733732616867	-0.04966736	
1733732616868	-0.044403076	
1733732616869	-0.04043579	
1733732616870	-0.04119873	
1733732616871	-0.035247803	
1733732616872	-0.03463745	
1733732616873	-0.035095215	
1733732616874	-0.031051636	
1733732616875	-0.024642944	
1733732616876	-0.018692017	
1733732616877	-0.013580322	
1733732616878	-0.0035858154	
1733732616879	0.0015258789	
1733732616880	0.0034332275	
1733732616881	0.011062622	
1733732616882	0.012817383	
1733732616883	0.020141602	
1733732616884	0.025253296	
1733732616885	0.022659302	
1733732616886	0.029373169	
1733732616887	0.03227234	
1733732616888	0.031814575	
1733732616889	0.028533936	
1733732616890	0.016784668	
1733732616891	0.02128601	
1733732616892	0.013427734	
1733732616893	0.0022888184	
1733732616894	0.00579834	
1733732616895	0.0019073486	
1733732616896	0.0033569336	
1733732616897	0.0049591064	
1733732616898	0.0022125244	
1733732616899	7.6293945E-5	
1733732616900	-0.0032043457	
1733732616901	-0.0010681152	
1733732616902	-0.0036621094	
1733732616903	-0.0066375732	
1733732616904	-0.0038909912	
1733732616905	-0.0022888184	
1733732616906	0.0036621094	
1733732616907	0.009536743	
1733732616908	0.012817383	
1733732616909	0.016403198	
1733732616910	0.014266968	
1733732616911	0.0059509277	
1733732616912	-0.0062561035	
1733732616913	-0.0060272217	
1733732616914	-0.007247925	
1733732616915	-0.013885498	
1733732616916	-0.013580322	
1733732616917	-0.011520386	
1733732616918	-0.011291504	
1733732616919	-0.0050354004	
1733732616920	-0.005340576	
1733732616921	-0.005874634	
1733732616922	0.0023651123	
1733732616923	0.002670288	
1733732616924	-0.0036621094	
1733732616925	-7.6293945E-4	
1733732616926	-0.0048828125	
1733732616927	-0.013885498	
1733732616928	-0.0104522705	
1733732616929	-0.0059509277	
1733732616930	-0.0012207031	
1733732616931	-0.008163452	
1733732616932	-0.018310547	
1733732616933	-0.013961792	
1733732616934	-0.013809204	
1733732616935	-0.0063323975	
1733732616936	-0.004043579	
1733732616937	-5.340576E-4	
1733732616938	0.004348755	
1733732616939	0.0051879883	
1733732616940	0.006790161	
1733732616941	0.0059509277	
1733732616942	0.0063323975	
1733732616943	-0.004501343	
1733732616944	-0.0036621094	
1733732616945	9.1552734E-4	
1733732616946	-0.005340576	
1733732616947	0.0050354004	
1733732616948	0.009841919	
1733732616949	0.015029907	
1733732616950	0.013198853	
1733732616951	0.006866455	
1733732616952	0.011978149	
1733732616953	0.004119873	
1733732616954	-3.0517578E-4	
1733732616955	0.0012207031	
1733732616956	-0.0012207031	
1733732616957	0.0064849854	
1733732616958	0.0012207031	
1733732616959	0.007247925	
1733732616960	0.0062561035	
1733732616961	6.1035156E-4	
1733732616962	0.0022888184	
1733732616963	-0.0037384033	
1733732616964	-0.0033569336	
1733732616965	-0.0032043457	
1733732616966	-0.008850098	
1733732616967	-0.00793457	
1733732616968	-0.014419556	
1733732616969	-0.018005371	
1733732616970	-0.012054443	
1733732616971	-0.0036621094	
1733732616972	6.1035156E-4	
1733732616973	-0.0074005127	
1733732616974	-0.022735596	
1733732616975	-0.026855469	
1733732616976	-0.023498535	
1733732616977	-0.019607544	
1733732616978	-0.0032043457	
1733732616979	-0.0012207031	
1733732616980	0.0060272217	
1733732616981	0.011291504	
1733732616982	0.017852783	
1733732616983	0.03425598	
1733732616984	0.034942627	
1733732616985	0.04272461	
1733732616986	0.049057007	
1733732616987	0.033416748	
1733732616988	0.029907227	
1733732616989	0.023498535	
1733732616990	0.011672974	
1733732616991	0.012054443	
1733732616992	0.004119873	
1733732616993	-0.0074768066	
1733732616994	-0.015182495	
1733732616995	-0.014572144	
1733732616996	-0.016555786	
1733732616997	-0.027313232	
1733732616998	-0.023651123	
1733732616999	-0.015640259	
1733732617000	-0.012435913	
1733732617001	0.0019073486	
1733732617002	0.0035858154	
1733732617003	-0.008239746	
1733732617004	-0.0090789795	
1733732617005	-0.01373291	
1733732617006	-0.024261475	
1733732617007	-0.018157959	
1733732617008	-0.013961792	
1733732617009	-0.010070801	
1733732617010	-0.01159668	
1733732617011	-0.012893677	
1733732617012	-0.01083374	
1733732617013	-0.007171631	
1733732617014	-0.011291504	
1733732617015	-0.005569458	
1733732617016	0.0019073486	
1733732617017	0.0051879883	
1733732617018	0.010070801	
1733732617019	0.005722046	
1733732617020	0.008468628	
1733732617021	0.005340576	
1733732617022	0.0118255615	
1733732617023	0.00831604	
1733732617024	-9.918213E-4	
1733732617025	0.004501343	
1733732617026	0.015487671	
1733732617027	0.013580322	
1733732617028	0.015182495	
1733732617029	0.019683838	
1733732617030	0.019378662	
1733732617031	0.01838684	
1733732617032	0.012130737	
1733732617033	0.012435913	
1733732617034	0.009155273	
1733732617035	0.007171631	
1733732617036	0.009841919	
1733732617037	0.003967285	
1733732617038	0.0030517578	
1733732617039	-7.6293945E-4	
1733732617040	-0.01159668	
1733732617041	-0.010986328	
1733732617042	-0.010986328	
1733732617043	-0.015487671	
1733732617044	-0.010681152	
1733732617045	-0.015182495	
1733732617046	-0.018539429	
1733732617047	-0.014266968	
1733732617048	-0.017852783	
1733732617049	-0.01701355	
1733732617050	-0.016403198	
1733732617051	-0.01625061	
1733732617052	-0.01373291	
1733732617053	-0.019760132	
1733732617054	-0.024032593	
1733732617055	-0.020141602	
1733732617056	-0.021514893	
1733732617057	-0.02532959	
1733732617058	-0.020065308	
1733732617059	-0.013198853	
1733732617060	-0.0036621094	
1733732617061	-6.866455E-4	
1733732617062	4.5776367E-4	
1733732617063	0.011749268	
1733732617064	0.016174316	
1733732617065	0.018539429	
1733732617066	0.027770996	
1733732617067	0.027160645	
1733732617068	0.025939941	
1733732617069	0.030975342	
1733732617070	0.031585693	
1733732617071	0.031051636	
1733732617072	0.03036499	
1733732617073	0.029067993	
1733732617074	0.027389526	
1733732617075	0.023880005	
1733732617076	0.019607544	
1733732617077	0.01991272	
1733732617078	0.016784668	
1733732617079	0.0049591064	
1733732617080	9.918213E-4	
1733732617081	-0.0011444092	
1733732617082	-0.009536743	
1733732617083	-0.018157959	
1733732617084	-0.02166748	
1733732617085	-0.018539429	
1733732617086	-0.018539429	
1733732617087	-0.020980835	
1733732617088	-0.018692017	
1733732617089	-0.01373291	
1733732617090	-0.011062622	
1733732617091	-0.00579834	
1733732617092	-0.004119873	
1733732617093	-0.005569458	
1733732617094	-0.004501343	
1733732617095	-0.0010681152	
1733732617096	0.008087158	
1733732617097	0.0118255615	
1733732617098	0.016479492	
1733732617099	0.017929077	
1733732617100	0.01701355	
1733732617101	0.021591187	
1733732617102	0.008392334	
1733732617103	-0.006942749	
1733732617104	-0.013122559	
1733732617105	-0.02532959	
1733732617106	-0.0315094	
1733732617107	-0.036392212	
1733732617108	-0.031433105	
1733732617109	-0.021820068	
1733732617110	-0.023956299	
1733732617111	-0.022735596	
1733732617112	-0.026626587	
1733732617113	-0.032348633	
1733732617114	-0.029220581	
1733732617115	-0.021438599	
1733732617116	-0.0118255615	
1733732617117	-0.008087158	
1733732617118	-0.0032806396	
1733732617119	0.0010681152	
1733732617120	0.00289917	
1733732617121	0.0104522705	
1733732617122	0.012207031	
1733732617123	0.010681152	
1733732617124	0.019760132	
1733732617125	0.024337769	
1733732617126	0.02456665	
1733732617127	0.027694702	
1733732617128	0.028762817	
1733732617129	0.022201538	
1733732617130	0.022201538	
1733732617131	0.02746582	
1733732617132	0.020141602	
1733732617133	0.018005371	
1733732617134	0.014572144	
1733732617135	0.0118255615	
1733732617136	0.01449585	
1733732617137	0.011367798	
1733732617138	0.009918213	
1733732617139	0.008468628	
1733732617140	0.0045776367	
1733732617141	-0.0017547607	
1733732617142	-0.0036621094	
1733732617143	-0.0049591064	
1733732617144	-0.005874634	
1733732617145	-0.0019836426	
1733732617146	-0.0033569336	
1733732617147	-0.00579834	
1733732617148	-0.005569458	
1733732617149	-0.005569458	
1733732617150	-0.0074768066	
1733732617151	-0.007019043	
1733732617152	-0.007247925	
1733732617153	-0.0090789795	
1733732617154	-0.0077819824	
1733732617155	-0.010223389	
1733732617156	-0.011520386	
1733732617157	-0.008773804	
1733732617158	-0.012588501	
1733732617159	-0.01663208	
1733732617160	-0.016403198	
1733732617161	-0.015487671	
1733732617162	-0.014038086	
1733732617163	-0.011138916	
1733732617164	-0.00289917	
1733732617165	0.0020599365	
1733732617166	0.005569458	
1733732617167	0.009307861	
1733732617168	0.0118255615	
1733732617169	0.021057129	
1733732617170	0.027008057	
1733732617171	0.032424927	
1733732617172	0.039520264	
1733732617173	0.025863647	
1733732617174	0.009765625	
1733732617175	0.013122559	
1733732617176	0.0033569336	
1733732617177	-0.0119018555	
1733732617178	-0.013656616	
1733732617179	-0.023880005	
1733732617180	-0.03868103	
1733732617181	-0.04562378	
1733732617182	-0.050048828	
1733732617183	-0.05432129	
1733732617184	-0.052947998	
1733732617185	-0.047531128	
1733732617186	-0.045928955	
1733732617187	-0.042419434	
1733732617188	-0.036849976	
1733732617189	-0.020751953	
1733732617190	-3.0517578E-4	
1733732617191	0.007171631	
1733732617192	0.016708374	
1733732617193	0.030212402	
1733732617194	0.03982544	
1733732617195	0.045700073	
1733732617196	0.05050659	
1733732617197	0.051651	
1733732617198	0.054473877	
1733732617199	0.056762695	
1733732617200	0.054855347	
1733732617201	0.048675537	
1733732617202	0.045166016	
1733732617203	0.041427612	
1733732617204	0.03211975	
1733732617205	0.027542114	
1733732617206	0.026321411	
1733732617207	0.026168823	
1733732617208	0.011444092	
1733732617209	-0.0016784668	
1733732617210	-0.0021362305	
1733732617211	-0.012435913	
1733732617212	-0.017318726	
1733732617213	-0.02708435	
1733732617214	-0.044708252	
1733732617215	-0.042877197	
1733732617216	-0.046691895	
1733732617217	-0.05256653	
1733732617218	-0.047225952	
1733732617219	-0.045318604	
1733732617220	-0.044937134	
1733732617221	-0.035247803	
1733732617222	-0.019302368	
1733732617223	-0.017623901	
1733732617224	-0.026168823	
1733732617225	-0.02746582	
1733732617226	-0.02319336	
1733732617227	-0.012512207	
1733732617228	-0.005264282	
1733732617229	-0.0076293945	
1733732617230	0.0024414062	
1733732617231	0.006790161	
1733732617232	0.013885498	
1733732617233	0.02998352	
1733732617234	0.04020691	
1733732617235	0.049819946	
1733732617236	0.069122314	
1733732617237	0.07904053	
1733732617238	0.06072998	
1733732617239	0.037765503	
1733732617240	0.013580322	
1733732617241	6.866455E-4	
1733732617242	-0.0012207031	
1733732617243	-0.006942749	
1733732617244	0.0031280518	
1733732617245	0.015640259	
1733732617246	0.01335144	
1733732617247	0.013809204	
1733732617248	0.0076293945	
1733732617249	-0.011672974	
1733732617250	-0.029296875	
1733732617251	-0.038375854	
1733732617252	-0.0390625	
1733732617253	-0.04386902	
1733732617254	-0.040130615	
1733732617255	-0.036849976	
1733732617256	-0.037994385	
1733732617257	-0.03715515	
1733732617258	-0.036315918	
1733732617259	-0.025863647	
1733732617260	-0.026245117	
1733732617261	-0.034942627	
1733732617262	-0.0365448	
1733732617263	-0.037612915	
1733732617264	-0.020141602	
1733732617265	7.6293945E-5	
1733732617266	0.016479492	
1733732617267	0.03517151	
1733732617268	0.033187866	
1733732617269	0.027008057	
1733732617270	0.035705566	
1733732617271	0.04875183	
1733732617272	0.06385803	
1733732617273	0.07873535	
1733732617274	0.08453369	
1733732617275	0.0705719	
1733732617276	0.040512085	
1733732617277	0.024490356	
1733732617278	0.026626587	
1733732617279	0.036697388	
1733732617280	0.047683716	
1733732617281	0.036621094	
1733732617282	0.010757446	
1733732617283	-0.016403198	
1733732617284	-0.03463745	
1733732617285	-0.037765503	
1733732617286	-0.041885376	
1733732617287	-0.033721924	
1733732617288	-0.031585693	
1733732617289	-0.042800903	
1733732617290	-0.047607422	
1733732617291	-0.07293701	
1733732617292	-0.08972168	
1733732617293	-0.09643555	
1733732617294	-0.120162964	
1733732617295	-0.13038635	
1733732617296	-0.10803223	
1733732617297	-0.061798096	
1733732617298	-0.00869751	
1733732617299	0.03250122	
1733732617300	0.045166016	
1733732617301	0.043945312	
1733732617302	0.039978027	
1733732617303	0.02998352	
1733732617304	0.02281189	
1733732617305	0.03677368	
1733732617306	0.05783081	
1733732617307	0.07026672	
1733732617308	0.0692749	
1733732617309	0.056915283	
1733732617310	0.055770874	
1733732617311	0.05393982	
1733732617312	0.036849976	
1733732617313	0.025634766	
1733732617314	0.0340271	
1733732617315	0.06111145	
1733732617316	0.08804321	
1733732617317	0.08804321	
1733732617318	0.08003235	
1733732617319	0.06820679	
1733732617320	0.049057007	
1733732617321	0.03265381	
1733732617322	0.01335144	
1733732617323	-0.003967285	
1733732617324	-0.020523071	
1733732617325	-0.03868103	
1733732617326	-0.05706787	
1733732617327	-0.07476807	
1733732617328	-0.07873535	
1733732617329	-0.08277893	
1733732617330	-0.08758545	
1733732617331	-0.088653564	
1733732617332	-0.08758545	
1733732617333	-0.08331299	
1733732617334	-0.083847046	
1733732617335	-0.08605957	
1733732617336	-0.078430176	
1733732617337	-0.068740845	
1733732617338	-0.056762695	
1733732617339	-0.04058838	
1733732617340	-0.018539429	
1733732617341	-9.1552734E-4	
1733732617342	0.01739502	
1733732617343	0.03036499	
1733732617344	0.035324097	
1733732617345	0.047836304	
1733732617346	0.055999756	
1733732617347	0.04966736	
1733732617348	0.042037964	
1733732617349	0.048065186	
1733732617350	0.048828125	
1733732617351	0.03303528	
1733732617352	0.020523071	
1733732617353	0.023880005	
1733732617354	0.021743774	
1733732617355	0.025405884	
1733732617356	0.052108765	
1733732617357	0.07133484	
1733732617358	0.08811951	
1733732617359	0.105285645	
1733732617360	0.096588135	
1733732617361	0.083236694	
1733732617362	0.06462097	
1733732617363	0.03868103	
1733732617364	0.017623901	
1733732617365	-0.018463135	
1733732617366	-0.05027771	
1733732617367	-0.06378174	
1733732617368	-0.08041382	
1733732617369	-0.09605408	
1733732617370	-0.10826111	
1733732617371	-0.13084412	
1733732617372	-0.12825012	
1733732617373	-0.114593506	
1733732617374	-0.10269165	
1733732617375	-0.08506775	
1733732617376	-0.07232666	
1733732617377	-0.07286072	
1733732617378	-0.04348755	
1733732617379	-0.016174316	
1733732617380	-8.392334E-4	
1733732617381	0.016174316	
1733732617382	0.025177002	
1733732617383	0.030593872	
1733732617384	0.038375854	
1733732617385	0.05455017	
1733732617386	0.061340332	
1733732617387	0.059432983	
1733732617388	0.06530762	
1733732617389	0.072631836	
1733732617390	0.06980896	
1733732617391	0.06881714	
1733732617392	0.07286072	
1733732617393	0.07194519	
1733732617394	0.066986084	
1733732617395	0.062179565	
1733732617396	0.05859375	
1733732617397	0.051193237	
1733732617398	0.04196167	
1733732617399	0.03692627	
1733732617400	0.029373169	
1733732617401	0.01701355	
1733732617402	0.00831604	
1733732617403	0.0015258789	
1733732617404	-0.010070801	
1733732617405	-0.019836426	
1733732617406	-0.02708435	
1733732617407	-0.031433105	
1733732617408	-0.040130615	
1733732617409	-0.05088806	
1733732617410	-0.053100586	
1733732617411	-0.059432983	
1733732617412	-0.058288574	
1733732617413	-0.05722046	
1733732617414	-0.059509277	
1733732617415	-0.055389404	
1733732617416	-0.054473877	
1733732617417	-0.052108765	
1733732617418	-0.052490234	
1733732617419	-0.051116943	
1733732617420	-0.042800903	
1733732617421	-0.03845215	
1733732617422	-0.033493042	
1733732617423	-0.02571106	
1733732617424	-0.021591187	
1733732617425	-0.015335083	
1733732617426	-0.0065612793	
1733732617427	0.0037384033	
1733732617428	0.01411438	
1733732617429	0.017547607	
1733732617430	0.023345947	
1733732617431	0.030899048	
1733732617432	0.036849976	
1733732617433	0.038223267	
1733732617434	0.037002563	
1733732617435	0.045547485	
1733732617436	0.047912598	
1733732617437	0.039138794	
1733732617438	0.04348755	
1733732617439	0.04638672	
1733732617440	0.050735474	
1733732617441	0.05897522	
1733732617442	0.048599243	
1733732617443	0.043258667	
1733732617444	0.045166016	
1733732617445	0.041122437	
1733732617446	0.04119873	
1733732617447	0.034866333	
1733732617448	0.014419556	
1733732617449	0.0032806396	
1733732617450	0.002670288	
1733732617451	-0.008850098	
1733732617452	-0.032424927	
1733732617453	-0.044174194	
1733732617454	-0.040512085	
1733732617455	-0.053024292	
1733732617456	-0.06744385	
1733732617457	-0.07064819	
1733732617458	-0.06965637	
1733732617459	-0.05744934	
1733732617460	-0.058135986	
1733732617461	-0.04714966	
1733732617462	-0.017700195	
1733732617463	-0.008239746	
1733732617464	0.004501343	
1733732617465	0.020141602	
1733732617466	0.02029419	
1733732617467	0.020446777	
1733732617468	0.015106201	
1733732617469	0.0035095215	
1733732617470	-2.2888184E-4	
1733732617471	-0.021057129	
1733732617472	-0.025482178	
1733732617473	-0.007247925	
1733732617474	-0.0020599365	
1733732617475	0.0017547607	
1733732617476	0.005874634	
1733732617477	0.015029907	
1733732617478	0.016098022	
1733732617479	0.0074768066	
1733732617480	0.006942749	
1733732617481	-0.008087158	
1733732617482	-0.013427734	
1733732617483	-0.010070801	
1733732617484	-0.002822876	
1733732617485	0.01739502	
1733732617486	0.022277832	
1733732617487	0.033416748	
1733732617488	0.03883362	
1733732617489	0.021362305	
1733732617490	0.029296875	
1733732617491	0.037612915	
1733732617492	0.026016235	
1733732617493	0.025177002	
1733732617494	0.022888184	
1733732617495	0.031280518	
1733732617496	0.040664673	
1733732617497	0.029373169	
1733732617498	0.02822876	
1733732617499	0.022583008	
1733732617500	0.009231567	
1733732617501	0.005264282	
1733732617502	-0.0025939941	
1733732617503	-0.0037384033	
1733732617504	-0.012054443	
1733732617505	-0.03730774	
1733732617506	-0.04585266	
1733732617507	-0.046463013	
1733732617508	-0.0541687	
1733732617509	-0.052642822	
1733732617510	-0.050201416	
1733732617511	-0.05256653	
1733732617512	-0.04486084	
1733732617513	-0.037002563	
1733732617514	-0.025863647	
1733732617515	-0.011291504	
1733732617516	-0.0022888184	
1733732617517	0.009689331	
1733732617518	0.030059814	
1733732617519	0.059051514	
1733732617520	0.08995056	
1733732617521	0.08773804	
1733732617522	0.055770874	
1733732617523	0.01701355	
1733732617524	-0.025177002	
1733732617525	-0.06278992	
1733732617526	-0.10871887	
1733732617527	-0.11489868	
1733732617528	-0.09643555	
1733732617529	-0.09269714	
1733732617530	-0.090789795	
1733732617531	-0.06248474	
1733732617532	-0.035095215	
1733732617533	-0.015411377	
1733732617534	4.5776367E-4	
1733732617535	0.012969971	
1733732617536	0.045776367	
1733732617537	0.055389404	
1733732617538	0.0692749	
1733732617539	0.089263916	
1733732617540	0.08850098	
1733732617541	0.08491516	
1733732617542	0.08087158	
1733732617543	0.08598328	
1733732617544	0.07614136	
1733732617545	0.0717926	
1733732617546	0.0831604	
1733732617547	0.079574585	
1733732617548	0.061340332	
1733732617549	0.030822754	
1733732617550	0.014038086	
1733732617551	-6.866455E-4	
1733732617552	-0.013885498	
1733732617553	-0.01586914	
1733732617554	-0.013885498	
1733732617555	0.0011444092	
1733732617556	-0.010223389	
1733732617557	-0.039978027	
1733732617558	-0.048217773	
1733732617559	-0.053329468	
1733732617560	-0.06347656	
1733732617561	-0.07598877	
1733732617562	-0.079956055	
1733732617563	-0.0743866	
1733732617564	-0.07698059	
1733732617565	-0.07141113	
1733732617566	-0.060806274	
1733732617567	-0.056152344	
1733732617568	-0.039215088	
1733732617569	-0.018920898	
1733732617570	-6.866455E-4	
1733732617571	0.017852783	
1733732617572	0.021057129	
1733732617573	0.02494812	
1733732617574	0.03189087	
1733732617575	0.033187866	
1733732617576	0.034942627	
1733732617577	0.028076172	
1733732617578	0.023498535	
1733732617579	0.0074768066	
1733732617580	-0.027542114	
1733732617581	-0.028915405	
1733732617582	-0.0012969971	
1733732617583	0.01449585	
1733732617584	0.027694702	
1733732617585	0.052108765	
1733732617586	0.057678223	
1733732617587	0.025405884	
1733732617588	-0.015716553	
1733732617589	-0.019836426	
1733732617590	-0.028076172	
1733732617591	-0.07659912	
1733732617592	-0.06591797	
1733732617593	-0.006942749	
1733732617594	0.044403076	
1733732617595	0.11627197	
1733732617596	0.17044067	
1733732617597	0.17692566	
1733732617598	0.111846924	
1733732617599	0.012283325	
1733732617600	-0.07507324	
1733732617601	-0.1386261	
1733732617602	-0.15350342	
1733732617603	-0.11985779	
1733732617604	-0.054855347	
1733732617605	0.008850098	
1733732617606	0.037612915	
1733732617607	0.03288269	
1733732617608	0.019989014	
1733732617609	-0.0024414062	
1733732617610	-0.019683838	
1733732617611	-0.021820068	
1733732617612	-0.0061035156	
1733732617613	0.032806396	
1733732617614	0.05455017	
1733732617615	0.028686523	
1733732617616	0.002746582	
1733732617617	0.0062561035	
1733732617618	0.00793457	
1733732617619	-0.005645752	
1733732617620	-0.026168823	
1733732617621	-0.03463745	
1733732617622	-0.030822754	
1733732617623	-0.015335083	
1733732617624	0.008544922	
1733732617625	0.015487671	
1733732617626	-0.013580322	
1733732617627	-0.0630188	
1733732617628	-0.054397583	
1733732617629	-0.010070801	
1733732617630	-9.1552734E-4	
1733732617631	-0.0016784668	
1733732617632	-0.0062561035	
1733732617633	-0.029449463	
1733732617634	-4.5776367E-4	
1733732617635	0.030822754	
1733732617636	0.009689331	
1733732617637	0.021438599	
1733732617638	0.05104065	
1733732617639	0.052108765	
1733732617640	0.0440979	
1733732617641	0.037994385	
1733732617642	0.03250122	
1733732617643	-0.0065612793	
1733732617644	-0.05607605	
1733732617645	-0.04638672	
1733732617646	-0.0029754639	
1733732617647	0.029296875	
1733732617648	0.052337646	
1733732617649	0.07217407	
1733732617650	0.040664673	
1733732617651	-0.024642944	
1733732617652	-0.043258667	
1733732617653	-0.030822754	
1733732617654	0.0048828125	
1733732617655	0.02571106	
1733732617656	0.008621216	
1733732617657	0.008163452	
1733732617658	-0.007019043	
1733732617659	-0.017166138	
1733732617660	-0.015106201	
1733732617661	-0.028152466	
1733732617662	0.010223389	
1733732617663	0.01876831	
1733732617664	-0.03501892	
1733732617665	-0.059051514	
1733732617666	-0.06996155	
1733732617667	-0.04623413	
1733732617668	-0.0064849854	
1733732617669	-0.019454956	
1733732617670	-0.046081543	
1733732617671	-0.030670166	
1733732617672	0.0289917	
1733732617673	0.06690979	
1733732617674	0.07888794	
1733732617675	0.09101868	
1733732617676	0.05531311	
1733732617677	-0.010681152	
1733732617678	-0.06652832	
1733732617679	-0.09712219	
1733732617680	-0.08552551	
1733732617681	-0.05218506	
1733732617682	0.007858276	
1733732617683	0.06813049	
1733732617684	0.06790161	
1733732617685	0.048217773	
1733732617686	0.049362183	
1733732617687	0.04425049	
1733732617688	0.028457642	
1733732617689	-0.0045776367	
1733732617690	-0.05722046	
1733732617691	-0.050735474	
1733732617692	0.02166748	
1733732617693	0.06416321	
1733732617694	0.06774902	
1733732617695	0.03463745	
1733732617696	-0.011062622	
1733732617697	-0.025558472	
1733732617698	-0.017929077	
1733732617699	-6.866455E-4	
1733732617700	-0.0035858154	
1733732617701	-0.028457642	
1733732617702	-0.038223267	
1733732617703	-0.019989014	
1733732617704	-0.023269653	
1733732617705	-0.026855469	
1733732617706	-0.013580322	
1733732617707	-0.05836487	
1733732617708	-0.062561035	
1733732617709	-0.009918213	
1733732617710	-0.0075531006	
1733732617711	-0.01083374	
1733732617712	-0.0034332275	
1733732617713	0.030975342	
1733732617714	0.05393982	
1733732617715	0.03807068	
1733732617716	0.0630188	
1733732617717	0.06820679	
1733732617718	0.01373291	
1733732617719	-0.014190674	
1733732617720	-0.02128601	
1733732617721	-0.025939941	
1733732617722	-0.012969971	
1733732617723	-0.006866455	
1733732617724	0.01335144	
1733732617725	1.5258789E-4	
1733732617726	-0.051574707	
1733732617727	-0.009613037	
1733732617728	0.034179688	
1733732617729	0.0010681152	
1733732617730	0.005340576	
1733732617731	0.021438599	
1733732617732	0.017929077	
1733732617733	0.01159668	
1733732617734	-0.008163452	
1733732617735	-0.026397705	
1733732617736	-0.03967285	
1733732617737	-0.03730774	
1733732617738	-0.0048828125	
1733732617739	0.030899048	
1733732617740	0.021896362	
1733732617741	0.02029419	
1733732617742	0.028457642	
1733732617743	-0.010986328	
1733732617744	-0.024719238	
1733732617745	0.0018310547	
1733732617746	0.012893677	
1733732617747	-0.0046539307	
1733732617748	-0.011062622	
1733732617749	0.006713867	
1733732617750	0.016326904	
1733732617751	0.025787354	
1733732617752	0.021438599	
1733732617753	0.014572144	
1733732617754	0.012130737	
1733732617755	-0.015029907	
1733732617756	-0.04600525	
1733732617757	-0.06454468	
1733732617758	-0.06248474	
1733732617759	-0.029678345	
1733732617760	9.1552734E-4	
1733732617761	0.008468628	
1733732617762	0.01838684	
1733732617763	0.018692017	
1733732617764	0.0064086914	
1733732617765	0.0104522705	
1733732617766	0.005874634	
1733732617767	0.022583008	
1733732617768	0.062179565	
1733732617769	0.05958557	
1733732617770	0.046310425	
1733732617771	0.03677368	
1733732617772	0.013656616	
1733732617773	-0.021743774	
1733732617774	-0.03517151	
1733732617775	-0.02128601	
1733732617776	-0.028076172	
1733732617777	-0.04989624	
1733732617778	-0.063934326	
1733732617779	-0.022659302	
1733732617780	0.027618408	
1733732617781	3.8146973E-4	
1733732617782	-0.039978027	
1733732617783	-0.03555298	
1733732617784	-0.031967163	
1733732617785	-0.038986206	
1733732617786	0.00579834	
1733732617787	0.05126953	
1733732617788	0.04447937	
1733732617789	0.028076172	
1733732617790	0.011291504	
1733732617791	0.0090789795	
1733732617792	0.0033569336	
1733732617793	0.0077819824	
1733732617794	0.03463745	
1733732617795	0.039367676	
1733732617796	0.036315918	
1733732617797	0.0104522705	
1733732617798	-0.015029907	
1733732617799	-0.0025939941	
1733732617800	2.2888184E-4	
1733732617801	-0.0051116943	
1733732617802	-0.009460449	
1733732617803	-0.015792847	
1733732617804	-0.009613037	
1733732617805	-0.0015258789	
1733732617806	0.0022125244	
1733732617807	-0.0048828125	
1733732617808	-0.021591187	
1733732617809	-0.041122437	
1733732617810	-0.04600525	
1733732617811	-0.021591187	
1733732617812	-0.013885498	
1733732617813	-0.030822754	
1733732617814	-0.017166138	
1733732617815	0.02029419	
1733732617816	0.030441284	
1733732617817	0.030517578	
1733732617818	0.042037964	
1733732617819	0.015640259	
1733732617820	0.0010681152	
1733732617821	0.02166748	
1733732617822	0.007019043	
1733732617823	-0.002670288	
1733732617824	-0.0012969971	
1733732617825	-0.004272461	
1733732617826	-0.0012969971	
1733732617827	-0.009231567	
1733732617828	-0.008010864	
1733732617829	-0.010681152	
1733732617830	-0.012817383	
1733732617831	-0.002670288	
1733732617832	-0.0022888184	
1733732617833	0.0032043457	
1733732617834	0.0077056885	
1733732617835	0.0030517578	
1733732617836	0.0049591064	
1733732617837	0.009613037	
1733732617838	0.010299683	
1733732617839	0.005645752	
1733732617840	0.004196167	
1733732617841	0.0024414062	
1733732617842	0.0016021729	
1733732617843	0.0047302246	
1733732617844	-3.0517578E-4	
1733732617845	-4.5776367E-4	
1733732617846	7.6293945E-5	
1733732617847	-2.2888184E-4	
1733732617848	0.005874634	
1733732617849	0.001449585	
1733732617850	-6.866455E-4	
1733732617851	7.6293945E-4	
1733732617852	0.0020599365	
1733732617853	0.0038146973	
1733732617854	-0.0018310547	
1733732617855	-0.0012969971	
1733732617856	-0.0046539307	
1733732617857	-0.011444092	
1733732617858	-0.0061035156	
1733732617859	-0.0066375732	
1733732617860	-0.00579834	
1733732617861	0.0062561035	
1733732617862	0.004501343	
1733732617863	-0.014038086	
1733732617864	-0.019302368	
1733732617865	-0.007095337	
1733732617866	-0.004501343	
1733732617867	-0.0046539307	
1733732617868	0.002670288	
1733732617869	0.00289917	
1733732617870	0.0045776367	
1733732617871	0.0066375732	
1733732617872	0.004043579	
1733732617873	0.005493164	
1733732617874	0.008621216	
1733732617875	0.004119873	
1733732617876	-0.0025939941	
1733732617877	-0.0032806396	
1733732617878	-0.0051879883	
1733732617879	-8.392334E-4	
1733732617880	-5.340576E-4	
1733732617881	-0.0034332275	
1733732617882	-0.0019836426	
1733732617883	-0.004501343	
1733732617884	-0.002822876	
