# OpenSignals Text File Format
# {"00:80:E1:26:9F:85":{"sensor":["EMG"],"device name":"00:80:E1:26:9F:85","column":["timestamp","EMG"],"sync interval":2,"time":"09:23:32","comments":"","keywords":"","device connection":"BLE00:80:E1:26:9F:85","channels":[0],"date":"2024-12-09","mode":0,"digital IO":[],"firmware version":259,"device":"musclebanplux","position":0,"sampling rate":1000,"label":["EMG"],"resolution":[16],"special":[{}],"sleeve color":["UNKNOWN"]}}
# EndOfHeader
1733732613528	0.026473999	
1733732613529	0.039901733	
1733732613530	0.059661865	
1733732613531	0.07286072	
1733732613532	0.04638672	
1733732613533	0.021743774	
1733732613534	-0.010681152	
1733732613535	-0.07972717	
1733732613536	-0.10986328	
1733732613537	-0.10307312	
1733732613538	-0.09490967	
1733732613539	-0.021972656	
1733732613540	0.054244995	
1733732613541	0.057754517	
1733732613542	0.053253174	
1733732613543	0.032806396	
1733732613544	-0.0012969971	
1733732613545	0.0061798096	
1733732613546	0.04852295	
1733732613547	0.06668091	
1733732613548	0.03288269	
1733732613549	0.012969971	
1733732613550	0.004119873	
1733732613551	-0.016098022	
1733732613552	-0.009155273	
1733732613553	-0.0024414062	
1733732613554	-0.014038086	
1733732613555	-0.017700195	
1733732613556	-0.014877319	
1733732613557	-0.020980835	
1733732613558	-0.0365448	
1733732613559	-0.03944397	
1733732613560	-0.026626587	
1733732613561	-0.009994507	
1733732613562	0.0061798096	
1733732613563	0.01625061	
1733732613564	0.017242432	
1733732613565	0.006713867	
1733732613566	-0.0062561035	
1733732613567	-0.020141602	
1733732613568	-0.0365448	
1733732613569	-0.036849976	
1733732613570	-0.0011444092	
1733732613571	0.034713745	
1733732613572	0.030975342	
1733732613573	0.024871826	
1733732613574	0.020523071	
1733732613575	0.01373291	
1733732613576	0.024871826	
1733732613577	0.016784668	
1733732613578	0.0045776367	
1733732613579	0.023117065	
1733732613580	0.024719238	
1733732613581	0.011520386	
1733732613582	8.392334E-4	
1733732613583	-0.017318726	
1733732613584	-0.018844604	
1733732613585	-0.016860962	
1733732613586	-0.014190674	
1733732613587	-0.004272461	
1733732613588	0.0032806396	
1733732613589	0.016784668	
1733732613590	0.0060272217	
1733732613591	-0.018692017	
1733732613592	-0.017852783	
1733732613593	-0.005264282	
1733732613594	0.0064849854	
1733732613595	-0.0029754639	
1733732613596	-0.023803711	
1733732613597	-0.04020691	
1733732613598	-0.042037964	
1733732613599	-0.019989014	
1733732613600	-0.015411377	
1733732613601	-0.014572144	
1733732613602	0.0118255615	
1733732613603	0.018005371	
1733732613604	0.018615723	
1733732613605	0.039901733	
1733732613606	0.03967285	
1733732613607	0.041427612	
1733732613608	0.038528442	
1733732613609	-0.0074005127	
1733732613610	-0.037460327	
1733732613611	-0.030822754	
1733732613612	7.6293945E-5	
1733732613613	0.025634766	
1733732613614	0.012207031	
1733732613615	-9.918213E-4	
1733732613616	-0.0048065186	
1733732613617	-0.022277832	
1733732613618	-0.025482178	
1733732613619	0.005722046	
1733732613620	0.02067566	
1733732613621	0.009384155	
1733732613622	0.0066375732	
1733732613623	0.012588501	
1733732613624	0.03845215	
1733732613625	0.045547485	
1733732613626	0.017089844	
1733732613627	-0.015640259	
1733732613628	-0.05882263	
1733732613629	-0.053482056	
1733732613630	-0.028762817	
1733732613631	-0.03135681	
1733732613632	-0.005264282	
1733732613633	0.0010681152	
1733732613634	-0.028839111	
1733732613635	-0.039520264	
1733732613636	-0.012893677	
1733732613637	0.02571106	
1733732613638	0.026626587	
1733732613639	0.022277832	
1733732613640	0.01739502	
1733732613641	-0.002746582	
1733732613642	0.009307861	
1733732613643	0.021362305	
1733732613644	-0.001373291	
1733732613645	-0.010070801	
1733732613646	0.018920898	
1733732613647	0.03829956	
1733732613648	0.02861023	
1733732613649	0.01625061	
1733732613650	0.004501343	
1733732613651	-0.0036621094	
1733732613652	0.0011444092	
1733732613653	0.002746582	
1733732613654	-0.00793457	
1733732613655	-0.013504028	
1733732613656	-0.02357483	
1733732613657	-0.026168823	
1733732613658	-0.014343262	
1733732613659	-0.01914978	
1733732613660	-0.013122559	
1733732613661	0.0074005127	
1733732613662	0.0015258789	
1733732613663	0.0025177002	
1733732613664	0.0090789795	
1733732613665	7.6293945E-5	
1733732613666	0.0036621094	
1733732613667	-0.0022888184	
1733732613668	-0.01335144	
1733732613669	-0.0076293945	
1733732613670	-0.016479492	
1733732613671	-0.03364563	
1733732613672	-0.01991272	
1733732613673	0.010070801	
1733732613674	0.026550293	
1733732613675	0.041427612	
1733732613676	0.0466156	
1733732613677	0.027160645	
1733732613678	0.0119018555	
1733732613679	-3.8146973E-4	
1733732613680	-0.027160645	
1733732613681	-0.05569458	
1733732613682	-0.036392212	
1733732613683	0.019378662	
1733732613684	0.020828247	
1733732613685	0.01991272	
1733732613686	0.04005432	
1733732613687	0.03440857	
1733732613688	0.025482178	
1733732613689	0.0016784668	
1733732613690	-0.01083374	
1733732613691	-0.0010681152	
1733732613692	-0.016021729	
1733732613693	-0.043563843	
1733732613694	-0.06034851	
1733732613695	-0.034179688	
1733732613696	0.0024414062	
1733732613697	-0.011672974	
1733732613698	-0.009994507	
1733732613699	0.022125244	
1733732613700	0.018005371	
1733732613701	0.00579834	
1733732613702	0.012893677	
1733732613703	0.02670288	
1733732613704	0.032577515	
1733732613705	0.01373291	
1733732613706	-0.004348755	
1733732613707	-0.028076172	
1733732613708	-0.037612915	
1733732613709	-0.017166138	
1733732613710	-0.007858276	
1733732613711	7.6293945E-5	
1733732613712	0.0020599365	
1733732613713	-0.008087158	
1733732613714	-0.0064849854	
1733732613715	0.013656616	
1733732613716	0.029296875	
1733732613717	0.028839111	
1733732613718	0.03807068	
1733732613719	0.026931763	
1733732613720	3.8146973E-4	
1733732613721	0.0035095215	
1733732613722	-0.0045776367	
1733732613723	-0.026779175	
1733732613724	-0.03112793	
1733732613725	-0.028457642	
1733732613726	-0.029525757	
1733732613727	-0.02418518	
1733732613728	-0.0075531006	
1733732613729	0.0010681152	
1733732613730	-0.0020599365	
1733732613731	0.0035095215	
1733732613732	0.0074005127	
1733732613733	0.0010681152	
1733732613734	0.0038909912	
1733732613735	0.0019073486	
1733732613736	0.0016784668	
1733732613737	0.013809204	
1733732613738	0.021743774	
1733732613739	0.02784729	
1733732613740	0.020980835	
1733732613741	0.01586914	
1733732613742	0.030288696	
1733732613743	0.019607544	
1733732613744	-0.0075531006	
1733732613745	-0.03112793	
1733732613746	-0.05569458	
1733732613747	-0.049743652	
1733732613748	-0.026931763	
1733732613749	-0.022354126	
1733732613750	-0.005340576	
1733732613751	0.022354126	
1733732613752	0.026855469	
1733732613753	0.020523071	
1733732613754	0.015335083	
1733732613755	0.008468628	
1733732613756	0.0019073486	
1733732613757	-7.6293945E-4	
1733732613758	0.00289917	
1733732613759	-0.0020599365	
1733732613760	-0.003967285	
1733732613761	0.010147095	
1733732613762	0.0066375732	
1733732613763	0.0045776367	
1733732613764	0.015487671	
1733732613765	0.017852783	
1733732613766	0.034866333	
1733732613767	0.022735596	
1733732613768	-0.019760132	
1733732613769	-0.028076172	
1733732613770	-0.027770996	
1733732613771	-0.023956299	
1733732613772	-0.008239746	
1733732613773	-0.00541687	
1733732613774	-0.013046265	
1733732613775	-0.02494812	
1733732613776	-0.024490356	
1733732613777	-0.022506714	
1733732613778	-0.02357483	
1733732613779	-0.014877319	
1733732613780	-0.007247925	
1733732613781	0.012283325	
1733732613782	0.032577515	
1733732613783	0.03250122	
1733732613784	0.02861023	
1733732613785	0.026245117	
1733732613786	0.027008057	
1733732613787	0.021743774	
1733732613788	0.012893677	
1733732613789	0.00289917	
1733732613790	-0.009994507	
1733732613791	-0.01663208	
1733732613792	-0.014572144	
1733732613793	-0.008087158	
1733732613794	-0.004196167	
1733732613795	-0.004196167	
1733732613796	-0.0047302246	
1733732613797	-0.004196167	
1733732613798	-6.1035156E-4	
1733732613799	-0.0048828125	
1733732613800	-0.01083374	
1733732613801	-0.009613037	
1733732613802	-0.009994507	
1733732613803	-0.004348755	
1733732613804	0.0024414062	
1733732613805	-0.0018310547	
1733732613806	0.0038909912	
1733732613807	0.011138916	
1733732613808	0.014190674	
1733732613809	0.022964478	
1733732613810	0.025024414	
1733732613811	0.019073486	
1733732613812	0.004043579	
1733732613813	-0.008087158	
1733732613814	-0.0075531006	
1733732613815	-0.015182495	
1733732613816	-0.022583008	
1733732613817	-0.020370483	
1733732613818	-0.017700195	
1733732613819	-0.015563965	
1733732613820	-0.0074768066	
1733732613821	0.0024414062	
1733732613822	0.005493164	
1733732613823	0.0048828125	
1733732613824	0.008926392	
1733732613825	0.012664795	
1733732613826	0.0049591064	
1733732613827	0.0047302246	
1733732613828	0.0032806396	
1733732613829	-0.0035858154	
1733732613830	0.0	
1733732613831	-0.0035095215	
1733732613832	-0.00869751	
1733732613833	-0.005569458	
1733732613834	-0.007019043	
1733732613835	-0.01159668	
1733732613836	-2.2888184E-4	
1733732613837	0.0090789795	
1733732613838	0.0074005127	
1733732613839	0.01777649	
1733732613840	0.026321411	
1733732613841	0.030441284	
1733732613842	0.02708435	
1733732613843	6.1035156E-4	
1733732613844	-0.025787354	
1733732613845	-0.03135681	
1733732613846	-0.025100708	
1733732613847	-0.015945435	
1733732613848	-0.0045776367	
1733732613849	0.0012969971	
1733732613850	0.013427734	
1733732613851	0.021820068	
1733732613852	3.8146973E-4	
1733732613853	-0.022583008	
1733732613854	-0.027008057	
1733732613855	-0.0118255615	
1733732613856	0.0038146973	
1733732613857	0.0059509277	
1733732613858	0.015716553	
1733732613859	0.03288269	
1733732613860	0.044784546	
1733732613861	0.028457642	
1733732613862	-0.02998352	
1733732613863	-0.06477356	
1733732613864	-0.034942627	
1733732613865	-0.0011444092	
1733732613866	0.0064086914	
1733732613867	-0.0012969971	
1733732613868	-0.0048828125	
1733732613869	0.001449585	
1733732613870	0.021362305	
1733732613871	0.035858154	
1733732613872	0.025253296	
1733732613873	0.024719238	
1733732613874	-0.0077056885	
1733732613875	-0.059509277	
1733732613876	-0.054397583	
1733732613877	-0.01739502	
1733732613878	0.0034332275	
1733732613879	0.0016784668	
1733732613880	0.015411377	
1733732613881	0.026931763	
1733732613882	0.01586914	
1733732613883	0.017089844	
1733732613884	0.009002686	
1733732613885	9.918213E-4	
1733732613886	0.00793457	
1733732613887	-0.0033569336	
1733732613888	-0.011672974	
1733732613889	-0.012512207	
1733732613890	-0.020446777	
1733732613891	-0.0104522705	
1733732613892	-3.0517578E-4	
1733732613893	-0.0059509277	
1733732613894	0.004119873	
1733732613895	0.012664795	
1733732613896	0.013504028	
1733732613897	0.02319336	
1733732613898	0.03517151	
1733732613899	0.0605011	
1733732613900	0.05218506	
1733732613901	0.015563965	
1733732613902	-3.8146973E-4	
1733732613903	-0.021896362	
1733732613904	-0.04295349	
1733732613905	-0.06591797	
1733732613906	-0.092544556	
1733732613907	-0.084991455	
1733732613908	-0.04020691	
1733732613909	-6.866455E-4	
1733732613910	0.0060272217	
1733732613911	0.007095337	
1733732613912	0.010147095	
1733732613913	0.014724731	
1733732613914	0.02494812	
1733732613915	0.023040771	
1733732613916	0.019454956	
1733732613917	0.021820068	
1733732613918	0.02067566	
1733732613919	0.019607544	
1733732613920	0.014801025	
1733732613921	0.0060272217	
1733732613922	-0.0011444092	
1733732613923	-6.1035156E-4	
1733732613924	0.0019836426	
1733732613925	0.009994507	
1733732613926	0.018157959	
1733732613927	0.018615723	
1733732613928	0.024108887	
1733732613929	0.022277832	
1733732613930	0.002822876	
1733732613931	-0.019454956	
1733732613932	-0.035629272	
1733732613933	-0.050125122	
1733732613934	-0.037994385	
1733732613935	-0.007171631	
1733732613936	-4.5776367E-4	
1733732613937	0.010147095	
1733732613938	0.025787354	
1733732613939	0.031967163	
1733732613940	0.022354126	
1733732613941	-0.019302368	
1733732613942	-0.057144165	
1733732613943	-0.0717926	
1733732613944	-0.037460327	
1733732613945	0.016403198	
1733732613946	0.027542114	
1733732613947	0.025863647	
1733732613948	0.022277832	
1733732613949	0.023345947	
1733732613950	0.014572144	
1733732613951	-0.0037384033	
1733732613952	0.0016021729	
1733732613953	-0.0047302246	
1733732613954	-0.01083374	
1733732613955	-0.0016021729	
1733732613956	-0.0045776367	
1733732613957	0.0023651123	
1733732613958	0.0019836426	
1733732613959	5.340576E-4	
1733732613960	0.016784668	
1733732613961	0.013885498	
1733732613962	0.005493164	
1733732613963	0.0019073486	
1733732613964	-0.008621216	
1733732613965	-0.020141602	
1733732613966	-0.022583008	
1733732613967	0.0019836426	
1733732613968	0.019607544	
1733732613969	0.01777649	
1733732613970	0.024795532	
1733732613971	0.015640259	
1733732613972	-0.004425049	
1733732613973	-0.02418518	
1733732613974	-0.035095215	
1733732613975	-0.025177002	
1733732613976	-0.014343262	
1733732613977	7.6293945E-5	
1733732613978	0.0033569336	
1733732613979	-0.001373291	
1733732613980	0.0035095215	
1733732613981	0.0047302246	
1733732613982	0.005645752	
1733732613983	0.004501343	
1733732613984	0.010223389	
1733732613985	0.01701355	
1733732613986	0.013809204	
1733732613987	0.015258789	
1733732613988	0.0063323975	
1733732613989	-0.0030517578	
1733732613990	0.00579834	
1733732613991	0.0019836426	
1733732613992	-0.004348755	
1733732613993	-0.0046539307	
1733732613994	-0.01777649	
1733732613995	-0.021438599	
1733732613996	-0.008544922	
1733732613997	-0.001449585	
1733732613998	0.0021362305	
1733732613999	0.00541687	
1733732614000	-0.0061035156	
1733732614001	-0.0119018555	
1733732614002	5.340576E-4	
1733732614003	0.004272461	
1733732614004	0.0036621094	
1733732614005	-2.2888184E-4	
1733732614006	-0.0064086914	
1733732614007	-7.6293945E-5	
1733732614008	3.8146973E-4	
1733732614009	0.0010681152	
1733732614010	0.009536743	
1733732614011	0.010681152	
1733732614012	0.011138916	
1733732614013	0.0065612793	
1733732614014	-0.0016784668	
1733732614015	-0.009384155	
1733732614016	-0.016021729	
1733732614017	-0.0063323975	
1733732614018	-8.392334E-4	
1733732614019	-0.005874634	
1733732614020	-0.0023651123	
1733732614021	0.006866455	
1733732614022	0.01373291	
1733732614023	0.010681152	
1733732614024	0.0038909912	
1733732614025	-2.2888184E-4	
1733732614026	-0.0036621094	
1733732614027	-0.009231567	
1733732614028	-0.0024414062	
1733732614029	0.008468628	
1733732614030	-0.0016784668	
1733732614031	-0.007019043	
1733732614032	5.340576E-4	
1733732614033	-0.0061798096	
1733732614034	-0.0104522705	
1733732614035	-3.0517578E-4	
1733732614036	0.0032806396	
1733732614037	0.0025939941	
1733732614038	0.0077819824	
1733732614039	0.0049591064	
1733732614040	0.0051116943	
1733732614041	0.016860962	
1733732614042	0.014572144	
1733732614043	0.007858276	
1733732614044	-3.0517578E-4	
1733732614045	-0.024414062	
1733732614046	-0.032958984	
1733732614047	-0.034484863	
1733732614048	-0.051956177	
1733732614049	-0.03517151	
1733732614050	0.0061798096	
1733732614051	0.013809204	
1733732614052	0.017318726	
1733732614053	0.03288269	
1733732614054	0.0390625	
1733732614055	0.03501892	
1733732614056	0.024108887	
1733732614057	0.016708374	
1733732614058	0.009689331	
1733732614059	-9.1552734E-4	
1733732614060	0.0066375732	
1733732614061	-6.866455E-4	
1733732614062	-0.029907227	
1733732614063	-0.032577515	
1733732614064	-0.037002563	
1733732614065	-0.043411255	
1733732614066	-0.026855469	
1733732614067	0.007171631	
1733732614068	0.045166016	
1733732614069	0.06278992	
1733732614070	0.07217407	
1733732614071	0.05760193	
1733732614072	0.0024414062	
1733732614073	-0.01625061	
1733732614074	-0.013580322	
1733732614075	-0.024795532	
1733732614076	-0.01373291	
1733732614077	-0.009155273	
1733732614078	-0.0059509277	
1733732614079	0.0029754639	
1733732614080	-9.918213E-4	
1733732614081	-0.009307861	
1733732614082	-0.029678345	
1733732614083	-0.043411255	
1733732614084	-0.043411255	
1733732614085	-0.039596558	
1733732614086	-0.037994385	
1733732614087	-0.034179688	
1733732614088	-0.009765625	
1733732614089	0.018463135	
1733732614090	0.021820068	
1733732614091	0.0025177002	
1733732614092	-0.013885498	
1733732614093	-0.006942749	
1733732614094	0.02128601	
1733732614095	0.031661987	
1733732614096	0.029220581	
1733732614097	0.03929138	
1733732614098	0.04020691	
1733732614099	0.039978027	
1733732614100	0.026168823	
1733732614101	9.918213E-4	
1733732614102	0.004501343	
1733732614103	0.0016021729	
1733732614104	-0.0046539307	
1733732614105	0.008239746	
1733732614106	0.008010864	
1733732614107	-3.0517578E-4	
1733732614108	-0.012130737	
1733732614109	-0.014572144	
1733732614110	2.2888184E-4	
1733732614111	-0.0061798096	
1733732614112	-0.01586914	
1733732614113	-0.0063323975	
1733732614114	-0.0064086914	
1733732614115	-0.012207031	
1733732614116	-0.00793457	
1733732614117	-0.0048065186	
1733732614118	-0.012512207	
1733732614119	-0.015945435	
1733732614120	-0.013198853	
1733732614121	-0.0074005127	
1733732614122	-9.1552734E-4	
1733732614123	-0.008163452	
1733732614124	-0.008773804	
1733732614125	0.003967285	
1733732614126	0.0030517578	
1733732614127	0.006942749	
1733732614128	0.012664795	
1733732614129	0.0064849854	
1733732614130	0.00793457	
1733732614131	0.008163452	
1733732614132	0.005645752	
1733732614133	0.0048065186	
1733732614134	-0.0016021729	
1733732614135	0.0021362305	
1733732614136	-6.1035156E-4	
1733732614137	-0.008239746	
1733732614138	-0.002822876	
1733732614139	-0.0076293945	
1733732614140	-0.0021362305	
1733732614141	0.010528564	
1733732614142	0.0038146973	
1733732614143	0.002822876	
1733732614144	0.007019043	
1733732614145	0.005569458	
1733732614146	0.004119873	
1733732614147	0.005264282	
1733732614148	6.866455E-4	
1733732614149	-0.008239746	
1733732614150	-0.010299683	
1733732614151	-0.0045776367	
1733732614152	-4.5776367E-4	
1733732614153	-0.004425049	
1733732614154	-0.007858276	
1733732614155	-0.00793457	
1733732614156	-0.0045776367	
1733732614157	-0.0016784668	
1733732614158	0.0037384033	
1733732614159	0.008468628	
1733732614160	0.0024414062	
1733732614161	0.0035095215	
1733732614162	0.010528564	
1733732614163	-4.5776367E-4	
1733732614164	-0.009307861	
1733732614165	-0.0035095215	
1733732614166	0.0010681152	
1733732614167	0.0023651123	
1733732614168	0.00793457	
1733732614169	0.020141602	
1733732614170	0.02960205	
1733732614171	0.022354126	
1733732614172	0.0060272217	
1733732614173	-0.013885498	
1733732614174	-0.019760132	
1733732614175	-0.01586914	
1733732614176	-0.019226074	
1733732614177	-0.01373291	
1733732614178	-0.01586914	
1733732614179	-0.017852783	
1733732614180	-6.866455E-4	
1733732614181	0.0035095215	
1733732614182	-0.0051116943	
1733732614183	-0.0035095215	
1733732614184	0.0021362305	
1733732614185	0.0025939941	
1733732614186	0.0016784668	
1733732614187	-0.0015258789	
1733732614188	-0.0016784668	
1733732614189	0.003967285	
1733732614190	0.0023651123	
1733732614191	0.0062561035	
1733732614192	0.01625061	
1733732614193	0.009994507	
1733732614194	-0.0045776367	
1733732614195	-0.004043579	
1733732614196	0.005569458	
1733732614197	0.0025939941	
1733732614198	5.340576E-4	
1733732614199	0.0077056885	
1733732614200	0.009994507	
1733732614201	0.004119873	
1733732614202	-0.0066375732	
1733732614203	-0.0048828125	
1733732614204	-0.0031280518	
1733732614205	-0.008850098	
1733732614206	-0.0019073486	
1733732614207	-3.0517578E-4	
1733732614208	-0.0064086914	
1733732614209	-0.0035858154	
1733732614210	-0.0037384033	
1733732614211	-0.0059509277	
1733732614212	-0.0017547607	
1733732614213	9.918213E-4	
1733732614214	-0.0019836426	
1733732614215	-0.0023651123	
1733732614216	0.0048828125	
1733732614217	0.010070801	
1733732614218	0.012664795	
1733732614219	0.011444092	
1733732614220	0.001373291	
1733732614221	-0.009460449	
1733732614222	-0.016860962	
1733732614223	-0.014572144	
1733732614224	-0.005722046	
1733732614225	-0.0050354004	
1733732614226	-0.0017547607	
1733732614227	0.008163452	
1733732614228	0.014038086	
1733732614229	0.01159668	
1733732614230	0.0038146973	
1733732614231	0.0060272217	
1733732614232	0.013122559	
1733732614233	0.012588501	
1733732614234	0.015029907	
1733732614235	0.01701355	
1733732614236	0.005493164	
1733732614237	-0.0059509277	
1733732614238	-0.012130737	
1733732614239	-0.02166748	
1733732614240	-0.021743774	
1733732614241	-0.017242432	
1733732614242	-0.010681152	
1733732614243	0.0034332275	
1733732614244	0.01411438	
1733732614245	0.009689331	
1733732614246	5.340576E-4	
1733732614247	-0.002670288	
1733732614248	-0.00793457	
1733732614249	-0.015945435	
1733732614250	-0.019302368	
1733732614251	-0.026245117	
1733732614252	-0.048675537	
1733732614253	-0.05569458	
1733732614254	-0.023498535	
1733732614255	-7.6293945E-4	
1733732614256	0.009613037	
1733732614257	0.030212402	
1733732614258	0.045394897	
1733732614259	0.0655365	
1733732614260	0.08506775	
1733732614261	0.0869751	
1733732614262	0.051498413	
1733732614263	0.0045776367	
1733732614264	-0.0064086914	
1733732614265	-0.01159668	
1733732614266	-0.012359619	
1733732614267	-0.01625061	
1733732614268	-0.03440857	
1733732614269	-0.035629272	
1733732614270	-0.032196045	
1733732614271	-0.032577515	
1733732614272	-0.030517578	
1733732614273	-0.024108887	
1733732614274	-0.014038086	
1733732614275	-0.015792847	
1733732614276	-0.029449463	
1733732614277	-0.026550293	
1733732614278	-0.00793457	
1733732614279	-0.02281189	
1733732614280	-0.046920776	
1733732614281	-0.022125244	
1733732614282	0.03868103	
1733732614283	0.10643005	
1733732614284	0.15953064	
1733732614285	0.16448975	
1733732614286	0.13023376	
1733732614287	0.044708252	
1733732614288	-0.061569214	
1733732614289	-0.13809204	
1733732614290	-0.18234253	
1733732614291	-0.13412476	
1733732614292	7.6293945E-4	
1733732614293	0.08476257	
1733732614294	0.00869751	
1733732614295	-0.07026672	
1733732614296	-0.0819397	
1733732614297	-0.13397217	
1733732614298	-0.12878418	
1733732614299	-0.08010864	
1733732614300	-0.002670288	
1733732614301	0.10925293	
1733732614302	0.14503479	
1733732614303	0.12641907	
1733732614304	0.060653687	
1733732614305	0.01991272	
1733732614306	0.03807068	
1733732614307	0.032424927	
1733732614308	0.04371643	
1733732614309	0.07850647	
1733732614310	0.09635925	
1733732614311	0.1412201	
1733732614312	0.15098572	
1733732614313	0.075912476	
1733732614314	0.008926392	
1733732614315	-0.055007935	
1733732614316	-0.14579773	
1733732614317	-0.16914368	
1733732614318	-0.102996826	
1733732614319	-0.06629944	
1733732614320	-0.08628845	
1733732614321	-0.11657715	
1733732614322	-0.13587952	
1733732614323	-0.103149414	
1733732614324	-0.03944397	
1733732614325	-0.010986328	
1733732614326	0.0037384033	
1733732614327	0.029296875	
1733732614328	0.044403076	
1733732614329	0.051574707	
1733732614330	0.05882263	
1733732614331	0.05630493	
1733732614332	0.04600525	
1733732614333	0.04486084	
1733732614334	0.046157837	
1733732614335	0.039520264	
1733732614336	0.030441284	
1733732614337	0.025558472	
1733732614338	0.018463135	
1733732614339	0.011978149	
1733732614340	0.008773804	
1733732614341	-0.0015258789	
1733732614342	-0.004272461	
1733732614343	6.866455E-4	
1733732614344	-0.004272461	
1733732614345	-0.006942749	
1733732614346	-0.009918213	
1733732614347	-0.01121521	
1733732614348	-0.009384155	
1733732614349	-0.015792847	
1733732614350	-0.015640259	
1733732614351	-0.012512207	
1733732614352	-0.013580322	
1733732614353	-0.014038086	
1733732614354	-0.019073486	
1733732614355	-0.019760132	
1733732614356	-0.014419556	
1733732614357	-0.009307861	
1733732614358	0.0025939941	
1733732614359	0.026931763	
1733732614360	0.04020691	
1733732614361	0.060806274	
1733732614362	0.0819397	
1733732614363	0.029907227	
1733732614364	-0.052871704	
1733732614365	-0.122909546	
1733732614366	-0.17547607	
1733732614367	-0.1638794	
1733732614368	-0.049209595	
1733732614369	0.124816895	
1733732614370	0.17547607	
1733732614371	0.104599	
1733732614372	0.06904602	
1733732614373	0.046463013	
1733732614374	0.012893677	
1733732614375	-0.009918213	
1733732614376	-0.0031280518	
1733732614377	0.017242432	
1733732614378	-0.019683838	
1733732614379	-0.087509155	
1733732614380	-0.15098572	
1733732614381	-0.22232056	
1733732614382	-0.08659363	
1733732614383	0.17692566	
1733732614384	0.21430969	
1733732614385	0.16189575	
1733732614386	0.093688965	
1733732614387	-0.03555298	
1733732614388	-0.09422302	
1733732614389	-0.12786865	
1733732614390	-0.13809204	
1733732614391	-0.049057007	
1733732614392	0.09941101	
1733732614393	0.16738892	
1733732614394	0.1071167	
1733732614395	0.037078857	
1733732614396	-0.07347107	
1733732614397	-0.24536133	
1733732614398	-0.280838	
1733732614399	-0.0907135	
1733732614400	0.12680054	
1733732614401	0.22064209	
1733732614402	0.20477295	
1733732614403	0.15213013	
1733732614404	0.11260986	
1733732614405	0.072784424	
1733732614406	0.0579834	
1733732614407	0.0037384033	
1733732614408	-0.052337646	
1733732614409	-0.048675537	
1733732614410	-0.10803223	
1733732614411	-0.14076233	
1733732614412	-0.08628845	
1733732614413	-0.10810852	
1733732614414	-0.16113281	
1733732614415	-0.0982666	
1733732614416	-0.050048828	
1733732614417	-0.07583618	
1733732614418	-0.02532959	
1733732614419	0.057754517	
1733732614420	0.08216858	
1733732614421	0.10093689	
1733732614422	0.12573242	
1733732614423	0.12138367	
1733732614424	0.09140015	
1733732614425	0.07728577	
1733732614426	0.067977905	
1733732614427	0.04058838	
1733732614428	-9.1552734E-4	
1733732614429	-0.033416748	
1733732614430	-0.041885376	
1733732614431	-0.082473755	
1733732614432	-0.10971069	
1733732614433	-0.04989624	
1733732614434	-2.2888184E-4	
1733732614435	-0.037612915	
1733732614436	-0.10147095	
1733732614437	-0.103759766	
1733732614438	-0.021972656	
1733732614439	0.0907135	
1733732614440	0.20347595	
1733732614441	0.31288147	
1733732614442	0.23864746	
1733732614443	-0.013656616	
1733732614444	-0.1689148	
1733732614445	-0.25009155	
1733732614446	-0.21080017	
1733732614447	-0.016479492	
1733732614448	0.03326416	
1733732614449	-0.009994507	
1733732614450	0.050582886	
1733732614451	0.1121521	
1733732614452	0.05142212	
1733732614453	-0.094833374	
1733732614454	-0.1335144	
1733732614455	-0.053100586	
1733732614456	-0.006713867	
1733732614457	-0.048065186	
1733732614458	-0.11505127	
1733732614459	-0.09513855	
1733732614460	-0.03753662	
1733732614461	-0.010910034	
1733732614462	0.07545471	
1733732614463	0.16052246	
1733732614464	0.12107849	
1733732614465	0.080718994	
1733732614466	0.08628845	
1733732614467	0.09666443	
1733732614468	0.1650238	
1733732614469	0.20637512	
1733732614470	0.16494751	
1733732614471	0.018615723	
1733732614472	-0.2394104	
1733732614473	-0.35949707	
1733732614474	-0.19744873	
1733732614475	0.031204224	
1733732614476	0.076828	
1733732614477	0.03112793	
1733732614478	0.048217773	
1733732614479	0.025024414	
1733732614480	-0.009307861	
1733732614481	0.0051116943	
1733732614482	-8.392334E-4	
1733732614483	-0.090026855	
1733732614484	-0.15388489	
1733732614485	-0.04562378	
1733732614486	0.061340332	
1733732614487	0.0920105	
1733732614488	0.045394897	
1733732614489	-0.07064819	
1733732614490	-0.09605408	
1733732614491	-0.10871887	
1733732614492	-0.11657715	
1733732614493	-0.08018494	
1733732614494	-0.06378174	
1733732614495	0.029449463	
1733732614496	0.08163452	
1733732614497	0.10887146	
1733732614498	0.20172119	
1733732614499	0.16960144	
1733732614500	0.12420654	
1733732614501	0.14732361	
1733732614502	0.13442993	
1733732614503	0.13130188	
1733732614504	0.077056885	
1733732614505	-0.122680664	
1733732614506	-0.22018433	
1733732614507	-0.062561035	
1733732614508	-0.028762817	
1733732614509	-0.13130188	
1733732614510	-0.086135864	
1733732614511	-0.13778687	
1733732614512	-0.33088684	
1733732614513	-0.29067993	
1733732614514	-0.01373291	
1733732614515	0.13793945	
1733732614516	0.097732544	
1733732614517	0.06858826	
1733732614518	0.12817383	
1733732614519	0.16807556	
1733732614520	0.15068054	
1733732614521	0.14549255	
1733732614522	0.118255615	
1733732614523	0.07728577	
1733732614524	0.012969971	
1733732614525	-0.06187439	
1733732614526	-0.07926941	
1733732614527	-0.07614136	
1733732614528	-0.069122314	
1733732614529	-0.058898926	
1733732614530	-0.037002563	
1733732614531	-0.0022888184	
1733732614532	0.018157959	
1733732614533	0.0554657	
1733732614534	0.10345459	
1733732614535	0.06591797	
1733732614536	-0.0806427	
1733732614537	-0.17303467	
1733732614538	-0.18630981	
1733732614539	-0.20637512	
1733732614540	-0.075149536	
1733732614541	0.111846924	
1733732614542	0.12580872	
1733732614543	0.17364502	
1733732614544	0.23651123	
1733732614545	0.12573242	
1733732614546	0.0074768066	
1733732614547	-0.03845215	
1733732614548	-0.046463013	
1733732614549	-0.030822754	
1733732614550	-0.042266846	
1733732614551	-0.061264038	
1733732614552	-0.06866455	
1733732614553	-0.059814453	
1733732614554	-0.046844482	
1733732614555	-0.05455017	
1733732614556	-0.03929138	
1733732614557	-0.013504028	
1733732614558	-6.1035156E-4	
1733732614559	0.01838684	
1733732614560	0.016098022	
1733732614561	0.016326904	
1733732614562	0.034561157	
1733732614563	0.048065186	
1733732614564	0.061645508	
1733732614565	0.058670044	
1733732614566	0.029067993	
1733732614567	-0.0119018555	
1733732614568	-0.022354126	
1733732614569	-0.009918213	
1733732614570	-0.0031280518	
1733732614571	-0.016937256	
1733732614572	-0.03753662	
1733732614573	6.866455E-4	
1733732614574	0.03730774	
1733732614575	0.0415802	
1733732614576	0.055618286	
1733732614577	0.033340454	
1733732614578	-0.009994507	
1733732614579	-0.026016235	
1733732614580	-0.029220581	
1733732614581	-0.043563843	
1733732614582	-0.046539307	
1733732614583	-0.01121521	
1733732614584	0.0029754639	
1733732614585	5.340576E-4	
1733732614586	0.0075531006	
1733732614587	-9.918213E-4	
1733732614588	-0.008468628	
1733732614589	-0.011138916	
1733732614590	-0.008773804	
1733732614591	-0.0066375732	
1733732614592	-0.0048065186	
1733732614593	-0.001373291	
1733732614594	-0.0032043457	
1733732614595	-0.0037384033	
1733732614596	-0.0060272217	
1733732614597	0.0035095215	
1733732614598	0.012893677	
1733732614599	0.015563965	
1733732614600	0.04425049	
1733732614601	0.06790161	
1733732614602	0.046310425	
1733732614603	-0.015487671	
1733732614604	-0.08522034	
1733732614605	-0.13809204	
1733732614606	-0.08178711	
1733732614607	0.094680786	
1733732614608	0.14755249	
1733732614609	0.06637573	
1733732614610	-0.025177002	
1733732614611	-0.12390137	
1733732614612	-0.11741638	
1733732614613	-0.027770996	
1733732614614	0.032730103	
1733732614615	0.036315918	
1733732614616	0.0031280518	
1733732614617	0.005264282	
1733732614618	0.021133423	
1733732614619	0.026779175	
1733732614620	0.027770996	
1733732614621	0.026550293	
1733732614622	0.04272461	
1733732614623	0.0554657	
1733732614624	0.033721924	
1733732614625	-5.340576E-4	
1733732614626	0.005264282	
1733732614627	0.0062561035	
1733732614628	-0.009002686	
1733732614629	-0.013427734	
1733732614630	-0.024642944	
1733732614631	-0.04043579	
1733732614632	-0.05455017	
1733732614633	-0.015716553	
1733732614634	0.034561157	
1733732614635	0.04058838	
1733732614636	0.01914978	
1733732614637	-0.030059814	
1733732614638	-0.057678223	
1733732614639	-0.0806427	
1733732614640	-0.085372925	
1733732614641	-0.027236938	
1733732614642	0.013504028	
1733732614643	0.009841919	
1733732614644	0.015411377	
1733732614645	0.021362305	
1733732614646	0.016326904	
1733732614647	0.03425598	
1733732614648	0.048446655	
1733732614649	0.02708435	
1733732614650	6.1035156E-4	
1733732614651	-0.020065308	
1733732614652	-0.03753662	
1733732614653	-0.031661987	
1733732614654	0.019836426	
1733732614655	0.052490234	
1733732614656	0.059432983	
1733732614657	0.08834839	
1733732614658	0.07148743	
1733732614659	0.02609253	
1733732614660	0.0036621094	
1733732614661	-0.035629272	
1733732614662	-0.07110596	
1733732614663	-0.06416321	
1733732614664	-0.029525757	
1733732614665	-0.0077056885	
1733732614666	-0.012054443	
1733732614667	-0.004196167	
1733732614668	-0.014190674	
1733732614669	-0.043563843	
1733732614670	-0.033950806	
1733732614671	-0.020065308	
1733732614672	-0.013961792	
1733732614673	-0.0034332275	
1733732614674	-0.001373291	
1733732614675	0.0051116943	
1733732614676	0.016174316	
1733732614677	0.01625061	
1733732614678	0.014572144	
1733732614679	0.019683838	
1733732614680	0.020904541	
1733732614681	0.01373291	
1733732614682	0.015792847	
1733732614683	0.016937256	
1733732614684	0.014266968	
1733732614685	0.009002686	
1733732614686	0.0060272217	
1733732614687	0.010299683	
1733732614688	0.001373291	
1733732614689	-0.008087158	
1733732614690	-0.009231567	
1733732614691	-0.005264282	
1733732614692	-0.0022888184	
1733732614693	-0.0061798096	
1733732614694	-0.008392334	
1733732614695	-0.011062622	
1733732614696	-0.0077819824	
1733732614697	0.0012969971	
1733732614698	0.002822876	
1733732614699	0.0019836426	
1733732614700	-4.5776367E-4	
1733732614701	-0.0038909912	
1733732614702	-0.009384155	
1733732614703	-0.009307861	
1733732614704	-0.0037384033	
1733732614705	-0.0022888184	
1733732614706	-0.0012207031	
1733732614707	-0.0051879883	
1733732614708	-0.0011444092	
1733732614709	-7.6293945E-5	
1733732614710	-0.0064086914	
1733732614711	6.866455E-4	
1733732614712	0.0090789795	
1733732614713	0.01449585	
1733732614714	-1.5258789E-4	
1733732614715	-0.021514893	
1733732614716	-0.015411377	
1733732614717	-0.002746582	
1733732614718	0.0051879883	
1733732614719	0.010147095	
1733732614720	0.01838684	
1733732614721	0.02609253	
1733732614722	0.02166748	
1733732614723	0.0064849854	
1733732614724	-0.012207031	
1733732614725	-0.015716553	
1733732614726	-0.0076293945	
1733732614727	0.0046539307	
1733732614728	0.015411377	
1733732614729	0.019989014	
1733732614730	0.01914978	
1733732614731	0.004119873	
1733732614732	-0.005722046	
1733732614733	-0.008087158	
1733732614734	-0.022964478	
1733732614735	-0.014877319	
1733732614736	0.005722046	
1733732614737	0.0025177002	
1733732614738	-0.005340576	
1733732614739	-0.017471313	
1733732614740	-0.029830933	
1733732614741	-0.038375854	
1733732614742	-0.045166016	
1733732614743	-0.040512085	
1733732614744	-0.033187866	
1733732614745	-0.029144287	
1733732614746	-0.02243042	
1733732614747	0.017318726	
1733732614748	0.07865906	
1733732614749	0.11062622	
1733732614750	0.07331848	
1733732614751	0.0415802	
1733732614752	0.055847168	
1733732614753	0.04676819	
1733732614754	0.028305054	
1733732614755	-0.012054443	
1733732614756	-0.0617218	
1733732614757	-0.087509155	
1733732614758	-0.1210022	
1733732614759	-0.0843811	
1733732614760	0.0032043457	
1733732614761	0.027542114	
1733732614762	0.034332275	
1733732614763	0.042877197	
1733732614764	0.038604736	
1733732614765	0.04852295	
1733732614766	0.047225952	
1733732614767	-2.2888184E-4	
1733732614768	-0.025177002	
1733732614769	0.014801025	
1733732614770	0.027694702	
1733732614771	0.034332275	
1733732614772	0.058135986	
1733732614773	0.025863647	
1733732614774	-0.0017547607	
1733732614775	-0.061798096	
1733732614776	-0.104522705	
1733732614777	-0.044555664	
1733732614778	-0.057296753	
1733732614779	-0.09857178	
1733732614780	-0.06767273	
1733732614781	-0.04524231	
1733732614782	-0.026397705	
1733732614783	0.0010681152	
1733732614784	0.03135681	
1733732614785	0.051116943	
1733732614786	0.040283203	
1733732614787	0.022888184	
1733732614788	0.021438599	
1733732614789	0.022735596	
1733732614790	-0.012741089	
1733732614791	-0.04020691	
1733732614792	-0.019073486	
1733732614793	0.009460449	
1733732614794	0.03112793	
1733732614795	0.04714966	
1733732614796	0.06309509	
1733732614797	0.063934326	
1733732614798	0.048980713	
1733732614799	0.05065918	
1733732614800	0.036697388	
1733732614801	0.005722046	
1733732614802	-0.014190674	
1733732614803	-0.030593872	
1733732614804	-0.015106201	
1733732614805	0.012283325	
1733732614806	0.002746582	
1733732614807	-0.030136108	
1733732614808	-0.030822754	
1733732614809	-0.011367798	
1733732614810	-0.018081665	
1733732614811	-0.012741089	
1733732614812	0.013427734	
1733732614813	0.014343262	
1733732614814	-0.020980835	
1733732614815	-0.045776367	
1733732614816	-0.051498413	
1733732614817	-0.076675415	
1733732614818	-0.062408447	
1733732614819	-0.0029754639	
1733732614820	0.04348755	
1733732614821	0.062942505	
1733732614822	0.040512085	
1733732614823	0.011291504	
1733732614824	-0.020904541	
1733732614825	-0.027313232	
1733732614826	0.029220581	
1733732614827	0.060272217	
1733732614828	0.023880005	
1733732614829	-0.015258789	
1733732614830	-0.042877197	
1733732614831	-0.07469177	
1733732614832	-0.09536743	
1733732614833	-0.03982544	
1733732614834	0.07675171	
1733732614835	0.08224487	
1733732614836	0.020599365	
1733732614837	0.011444092	
1733732614838	-0.009460449	
1733732614839	-0.026550293	
1733732614840	-0.02281189	
1733732614841	-0.022964478	
1733732614842	-0.03692627	
1733732614843	-0.055007935	
1733732614844	0.027999878	
1733732614845	0.16036987	
1733732614846	0.16151428	
1733732614847	0.07911682	
1733732614848	-0.016937256	
1733732614849	-0.09811401	
1733732614850	-0.09010315	
1733732614851	-0.024871826	
1733732614852	0.076828	
1733732614853	0.10635376	
1733732614854	0.02067566	
1733732614855	-0.020828247	
1733732614856	-0.069503784	
1733732614857	-0.12458801	
1733732614858	-0.054855347	
1733732614859	0.019760132	
1733732614860	0.018615723	
1733732614861	0.0035858154	
1733732614862	-0.012435913	
1733732614863	-0.004119873	
1733732614864	0.021133423	
1733732614865	0.02998352	
1733732614866	0.02418518	
1733732614867	-0.004272461	
1733732614868	-0.018997192	
1733732614869	-0.015335083	
1733732614870	-0.041503906	
1733732614871	-0.03463745	
1733732614872	0.010986328	
1733732614873	0.019607544	
1733732614874	0.00579834	
1733732614875	-0.050201416	
1733732614876	-0.13977051	
1733732614877	-0.09300232	
1733732614878	0.053024292	
1733732614879	0.114212036	
1733732614880	0.117874146	
1733732614881	0.11489868	
1733732614882	0.06523132	
1733732614883	-0.004196167	
1733732614884	-0.030593872	
1733732614885	-0.013580322	
1733732614886	0.0019836426	
1733732614887	0.0025939941	
1733732614888	0.013961792	
1733732614889	0.024414062	
1733732614890	0.009689331	
1733732614891	-0.0048065186	
1733732614892	0.0061798096	
1733732614893	0.016326904	
1733732614894	-0.006866455	
1733732614895	-0.020141602	
1733732614896	-0.03303528	
1733732614897	-0.07575989	
1733732614898	-0.063705444	
1733732614899	-0.035629272	
1733732614900	-0.05859375	
1733732614901	-0.055770874	
1733732614902	-0.035629272	
1733732614903	-0.0074005127	
1733732614904	0.04219055	
1733732614905	0.04714966	
1733732614906	0.031280518	
1733732614907	0.026016235	
1733732614908	-0.01373291	
1733732614909	-0.044403076	
1733732614910	-0.020065308	
1733732614911	0.00793457	
1733732614912	0.020751953	
1733732614913	0.017318726	
1733732614914	0.004272461	
1733732614915	0.02067566	
1733732614916	0.029525757	
1733732614917	0.017623901	
1733732614918	0.01701355	
1733732614919	0.0050354004	
1733732614920	6.866455E-4	
1733732614921	0.012512207	
1733732614922	0.020751953	
1733732614923	0.0340271	
1733732614924	0.037460327	
1733732614925	0.034866333	
1733732614926	0.020141602	
1733732614927	-0.007247925	
1733732614928	-0.018234253	
1733732614929	-0.023803711	
1733732614930	-0.028839111	
1733732614931	-0.02128601	
1733732614932	-0.0063323975	
1733732614933	-0.004119873	
1733732614934	-0.012283325	
1733732614935	-0.0021362305	
1733732614936	0.013656616	
1733732614937	0.018005371	
1733732614938	0.0090789795	
1733732614939	-0.012207031	
1733732614940	-0.015029907	
1733732614941	-0.0146484375	
1733732614942	-0.026245117	
1733732614943	-0.017089844	
1733732614944	-0.009460449	
1733732614945	-0.015716553	
1733732614946	-0.0059509277	
1733732614947	0.0033569336	
1733732614948	0.0033569336	
1733732614949	-0.0016021729	
1733732614950	-0.012512207	
1733732614951	-0.019683838	
1733732614952	-0.024414062	
1733732614953	-0.018463135	
1733732614954	-0.007247925	
1733732614955	-0.015335083	
1733732614956	-0.01625061	
1733732614957	-0.0064849854	
1733732614958	-0.011444092	
1733732614959	-0.002670288	
1733732614960	0.010299683	
1733732614961	0.023498535	
1733732614962	0.03845215	
1733732614963	0.029220581	
1733732614964	0.026855469	
1733732614965	0.041809082	
1733732614966	0.04547119	
1733732614967	0.04562378	
1733732614968	0.037384033	
1733732614969	0.01625061	
1733732614970	0.012741089	
1733732614971	0.012130737	
1733732614972	0.0038146973	
1733732614973	-0.009689331	
1733732614974	-0.0075531006	
1733732614975	-4.5776367E-4	
1733732614976	-0.005340576	
1733732614977	-0.0119018555	
1733732614978	-0.023880005	
1733732614979	-0.024719238	
1733732614980	-0.020751953	
1733732614981	-0.016326904	
1733732614982	-0.0046539307	
1733732614983	-0.001449585	
1733732614984	-5.340576E-4	
1733732614985	0.0051116943	
1733732614986	-0.0025177002	
1733732614987	-0.012283325	
1733732614988	-0.01953125	
1733732614989	-0.029907227	
1733732614990	-0.028686523	
1733732614991	-0.013046265	
1733732614992	-0.0090789795	
1733732614993	-0.012893677	
1733732614994	-0.0118255615	
1733732614995	-0.0025939941	
1733732614996	0.0032806396	
1733732614997	-0.0062561035	
1733732614998	-0.008392334	
1733732614999	-0.002746582	
1733732615000	0.0025939941	
1733732615001	0.010375977	
1733732615002	0.014266968	
1733732615003	0.008087158	
1733732615004	-0.003967285	
1733732615005	-0.008163452	
1733732615006	-0.011291504	
1733732615007	-0.011444092	
1733732615008	-0.009460449	
1733732615009	-0.010299683	
1733732615010	-0.0048065186	
1733732615011	3.8146973E-4	
1733732615012	0.0064849854	
1733732615013	0.012664795	
1733732615014	0.010757446	
1733732615015	0.009307861	
1733732615016	0.0061035156	
1733732615017	0.0038909912	
1733732615018	0.012741089	
1733732615019	0.024337769	
1733732615020	0.03303528	
1733732615021	0.03593445	
1733732615022	0.03967285	
1733732615023	0.038528442	
1733732615024	0.022735596	
1733732615025	0.016860962	
1733732615026	0.01701355	
1733732615027	0.003967285	
1733732615028	-0.008850098	
1733732615029	-0.022354126	
1733732615030	-0.029678345	
1733732615031	-0.020523071	
1733732615032	-0.01701355	
1733732615033	-0.017166138	
1733732615034	-0.014877319	
1733732615035	-0.014266968	
1733732615036	-0.011062622	
1733732615037	-0.015106201	
1733732615038	-0.023345947	
1733732615039	-0.023956299	
1733732615040	-0.012817383	
1733732615041	-0.0036621094	
1733732615042	-0.00541687	
1733732615043	1.5258789E-4	
1733732615044	0.010223389	
1733732615045	0.01739502	
1733732615046	0.024795532	
1733732615047	0.02532959	
1733732615048	0.02418518	
1733732615049	0.014190674	
1733732615050	8.392334E-4	
1733732615051	0.003967285	
1733732615052	0.0032043457	
1733732615053	-0.0073242188	
1733732615054	-0.017547607	
1733732615055	-0.02571106	
1733732615056	-0.030517578	
1733732615057	-0.03578186	
1733732615058	-0.035705566	
1733732615059	-0.018539429	
1733732615060	-0.0011444092	
1733732615061	0.005874634	
1733732615062	0.014419556	
1733732615063	0.016098022	
1733732615064	0.008850098	
1733732615065	-0.0033569336	
1733732615066	-0.0030517578	
1733732615067	0.0061035156	
1733732615068	0.013427734	
1733732615069	0.021743774	
1733732615070	0.021514893	
1733732615071	0.031585693	
1733732615072	0.030059814	
1733732615073	0.015411377	
1733732615074	-6.866455E-4	
1733732615075	-0.021820068	
1733732615076	-0.034179688	
1733732615077	-0.029907227	
1733732615078	-0.009613037	
1733732615079	0.010681152	
1733732615080	0.017242432	
1733732615081	0.011672974	
1733732615082	0.00541687	
1733732615083	-0.008239746	
1733732615084	-0.02571106	
1733732615085	0.0011444092	
1733732615086	0.028305054	
1733732615087	0.0060272217	
1733732615088	0.006713867	
1733732615089	0.01449585	
1733732615090	-0.0024414062	
1733732615091	-0.0118255615	
1733732615092	-0.027618408	
1733732615093	-0.029754639	
1733732615094	-0.01625061	
1733732615095	-0.011291504	
1733732615096	-0.005264282	
1733732615097	-0.0035858154	
1733732615098	0.002822876	
1733732615099	0.009994507	
1733732615100	0.009384155	
1733732615101	0.010223389	
1733732615102	0.0132751465	
1733732615103	0.010910034	
1733732615104	0.0063323975	
1733732615105	0.0061035156	
1733732615106	-9.1552734E-4	
1733732615107	0.0035858154	
1733732615108	0.008926392	
1733732615109	-0.0046539307	
1733732615110	0.0012969971	
1733732615111	0.016098022	
1733732615112	0.008544922	
1733732615113	0.013656616	
1733732615114	0.027770996	
1733732615115	0.0289917	
1733732615116	0.017623901	
1733732615117	5.340576E-4	
1733732615118	-0.00869751	
1733732615119	-0.017242432	
1733732615120	-0.02861023	
1733732615121	-0.040893555	
1733732615122	-0.046463013	
1733732615123	-0.036621094	
1733732615124	-0.024719238	
1733732615125	-0.014266968	
1733732615126	-0.007858276	
1733732615127	0.0022888184	
1733732615128	0.01876831	
1733732615129	0.010375977	
1733732615130	-0.0048065186	
1733732615131	-0.004196167	
1733732615132	-0.0118255615	
1733732615133	-0.013885498	
1733732615134	-0.011367798	
1733732615135	-0.007171631	
1733732615136	0.0132751465	
1733732615137	0.019607544	
1733732615138	0.024108887	
1733732615139	0.027236938	
1733732615140	0.008087158	
1733732615141	0.0074768066	
1733732615142	0.024795532	
1733732615143	0.019836426	
1733732615144	0.0074768066	
1733732615145	-0.0032043457	
1733732615146	-0.013198853	
1733732615147	-0.012741089	
1733732615148	-0.011291504	
1733732615149	-0.005493164	
1733732615150	-0.0046539307	
1733732615151	-0.012664795	
1733732615152	-0.013198853	
1733732615153	0.0010681152	
1733732615154	0.010299683	
1733732615155	0.004119873	
1733732615156	0.012512207	
1733732615157	0.026397705	
1733732615158	0.024642944	
1733732615159	0.014801025	
1733732615160	0.012512207	
1733732615161	0.02998352	
1733732615162	0.025634766	
1733732615163	-0.022277832	
1733732615164	-0.052337646	
1733732615165	-0.013580322	
1733732615166	0.025863647	
1733732615167	0.012512207	
1733732615168	0.0035858154	
1733732615169	-4.5776367E-4	
1733732615170	-0.009841919	
1733732615171	-0.012969971	
1733732615172	-0.021896362	
1733732615173	-0.03387451	
1733732615174	-0.032577515	
1733732615175	-0.016708374	
1733732615176	-0.014724731	
1733732615177	-0.03265381	
1733732615178	-0.0415802	
1733732615179	-0.02670288	
1733732615180	-0.008087158	
1733732615181	0.008468628	
1733732615182	0.028533936	
1733732615183	0.04058838	
1733732615184	0.047607422	
1733732615185	0.042037964	
1733732615186	0.043411255	
1733732615187	0.064315796	
1733732615188	0.04119873	
1733732615189	6.866455E-4	
1733732615190	-0.011749268	
1733732615191	-0.024032593	
1733732615192	-0.038757324	
1733732615193	-0.03189087	
1733732615194	-0.016937256	
1733732615195	-0.012588501	
1733732615196	-0.002746582	
1733732615197	-0.008087158	
1733732615198	-0.026931763	
1733732615199	-0.018539429	
1733732615200	-0.008392334	
1733732615201	-0.0045776367	
1733732615202	0.0025177002	
1733732615203	0.0075531006	
1733732615204	0.014724731	
1733732615205	0.0019836426	
1733732615206	-0.022583008	
1733732615207	-0.036392212	
1733732615208	-0.04425049	
1733732615209	-0.042648315	
1733732615210	-0.026779175	
1733732615211	-0.004425049	
1733732615212	0.022201538	
1733732615213	0.055770874	
1733732615214	0.08224487	
1733732615215	0.09750366	
1733732615216	0.09613037	
1733732615217	0.0806427	
1733732615218	0.07499695	
1733732615219	0.06454468	
1733732615220	0.02456665	
1733732615221	-0.03868103	
1733732615222	-0.084609985	
1733732615223	-0.08720398	
1733732615224	-0.09689331	
1733732615225	-0.101242065	
1733732615226	-0.076828	
1733732615227	-0.06774902	
1733732615228	-0.039215088	
1733732615229	-0.0021362305	
1733732615230	0.0049591064	
1733732615231	0.015029907	
1733732615232	0.0090789795	
1733732615233	-0.0018310547	
1733732615234	0.0012969971	
1733732615235	0.0023651123	
1733732615236	0.0077056885	
1733732615237	0.0021362305	
1733732615238	0.0037384033	
1733732615239	0.033416748	
1733732615240	0.054626465	
1733732615241	0.056381226	
1733732615242	0.04989624	
1733732615243	0.037078857	
1733732615244	0.0060272217	
1733732615245	-0.01586914	
1733732615246	-0.0065612793	
1733732615247	5.340576E-4	
1733732615248	0.030059814	
1733732615249	0.10032654	
1733732615250	0.12992859	
1733732615251	0.08705139	
1733732615252	0.027999878	
1733732615253	-0.00579834	
1733732615254	-0.04081726	
1733732615255	-0.17684937	
1733732615256	-0.2984619	
1733732615257	-0.20690918	
1733732615258	-0.040740967	
1733732615259	0.015487671	
1733732615260	-0.030212402	
1733732615261	-0.033950806	
1733732615262	0.053863525	
1733732615263	0.09681702	
1733732615264	0.079574585	
1733732615265	0.06713867	
1733732615266	0.06462097	
1733732615267	0.045166016	
1733732615268	-0.008773804	
1733732615269	-0.05218506	
1733732615270	-0.01121521	
1733732615271	0.048294067	
1733732615272	0.057525635	
1733732615273	0.0617218	
1733732615274	0.08102417	
1733732615275	0.050201416	
1733732615276	-0.03982544	
1733732615277	-0.085372925	
1733732615278	-0.095062256	
1733732615279	-0.07362366	
1733732615280	0.024108887	
1733732615281	0.102996826	
1733732615282	0.09033203	
1733732615283	0.030975342	
1733732615284	-0.0390625	
1733732615285	-0.12832642	
1733732615286	-0.17189026	
1733732615287	-0.1410675	
1733732615288	-0.089035034	
1733732615289	-9.918213E-4	
1733732615290	0.097732544	
1733732615291	0.1612091	
1733732615292	0.13076782	
1733732615293	-2.2888184E-4	
1733732615294	-0.018310547	
1733732615295	0.03135681	
1733732615296	-0.055618286	
1733732615297	-0.16334534	
1733732615298	-0.13687134	
1733732615299	-0.010910034	
1733732615300	0.062179565	
1733732615301	0.09849548	
1733732615302	0.1524353	
1733732615303	0.16494751	
1733732615304	0.13397217	
1733732615305	0.026168823	
1733732615306	-0.0667572	
1733732615307	-0.042037964	
1733732615308	0.001373291	
1733732615309	0.012741089	
1733732615310	-0.0050354004	
1733732615311	-0.018920898	
1733732615312	-0.029449463	
1733732615313	-0.052337646	
1733732615314	-0.0035095215	
1733732615315	0.05630493	
1733732615316	0.042114258	
1733732615317	-0.023040771	
1733732615318	-0.09552002	
1733732615319	-0.12947083	
1733732615320	-0.15075684	
1733732615321	-0.13786316	
1733732615322	-0.08766174	
1733732615323	-0.0554657	
1733732615324	-0.00541687	
1733732615325	0.02532959	
1733732615326	-0.0046539307	
1733732615327	-0.035476685	
1733732615328	-0.051574707	
1733732615329	-0.04547119	
1733732615330	5.340576E-4	
1733732615331	0.079193115	
1733732615332	0.16700745	
1733732615333	0.20698547	
1733732615334	0.24482727	
1733732615335	0.24284363	
1733732615336	0.14068604	
1733732615337	0.0756073	
1733732615338	0.048980713	
1733732615339	0.0012969971	
1733732615340	-0.010757446	
1733732615341	0.055770874	
1733732615342	0.118255615	
1733732615343	0.08972168	
1733732615344	0.030593872	
1733732615345	-0.025405884	
1733732615346	-0.06851196	
1733732615347	-0.113983154	
1733732615348	-0.10772705	
1733732615349	-0.039596558	
1733732615350	-0.060043335	
1733732615351	-0.17211914	
1733732615352	-0.2243805	
1733732615353	-0.23590088	
1733732615354	-0.2658844	
1733732615355	-0.21362305	
1733732615356	-0.10101318	
1733732615357	-0.040740967	
1733732615358	-0.06492615	
1733732615359	-0.14549255	
1733732615360	-0.13725281	
1733732615361	-0.07507324	
1733732615362	-0.032424927	
1733732615363	0.03593445	
1733732615364	0.09017944	
1733732615365	0.10307312	
1733732615366	0.091781616	
1733732615367	0.10360718	
1733732615368	0.16906738	
1733732615369	0.21980286	
1733732615370	0.23468018	
1733732615371	0.23887634	
1733732615372	0.18371582	
1733732615373	0.055847168	
1733732615374	-0.03692627	
1733732615375	0.022506714	
1733732615376	0.11528015	
1733732615377	0.10093689	
1733732615378	0.08407593	
1733732615379	0.084609985	
1733732615380	0.051193237	
1733732615381	0.020446777	
1733732615382	-0.007247925	
1733732615383	-0.055541992	
1733732615384	-0.0995636	
1733732615385	-0.10688782	
1733732615386	-0.060195923	
1733732615387	-0.023727417	
1733732615388	-0.01121521	
1733732615389	0.00831604	
1733732615390	0.0045776367	
1733732615391	-0.0030517578	
1733732615392	-0.027160645	
1733732615393	-0.073394775	
1733732615394	-0.107421875	
1733732615395	-0.13191223	
1733732615396	-0.13961792	
1733732615397	-0.13412476	
1733732615398	-0.10673523	
1733732615399	-0.084991455	
1733732615400	-0.06965637	
1733732615401	-0.024642944	
1733732615402	0.005493164	
1733732615403	0.01739502	
1733732615404	0.023651123	
1733732615405	0.030899048	
1733732615406	0.050125122	
1733732615407	0.050201416	
1733732615408	0.05256653	
1733732615409	0.05958557	
1733732615410	0.06462097	
1733732615411	0.0667572	
1733732615412	0.058517456	
1733732615413	0.050048828	
1733732615414	0.04272461	
1733732615415	0.039138794	
1733732615416	0.0315094	
1733732615417	0.019302368	
1733732615418	0.00831604	
1733732615419	-0.001373291	
1733732615420	-0.0022888184	
1733732615421	-0.013198853	
1733732615422	-0.0340271	
1733732615423	-0.038909912	
1733732615424	-0.05355835	
1733732615425	-0.066223145	
1733732615426	-0.05393982	
1733732615427	-0.045776367	
1733732615428	-0.023651123	
1733732615429	0.0023651123	
1733732615430	-0.003967285	
1733732615431	-0.012817383	
1733732615432	-0.012512207	
1733732615433	-0.0104522705	
1733732615434	-0.005874634	
1733732615435	-0.0064849854	
1733732615436	-0.004119873	
1733732615437	-0.0011444092	
1733732615438	0.00831604	
1733732615439	0.037384033	
1733732615440	0.07041931	
1733732615441	0.090789795	
1733732615442	0.10383606	
1733732615443	0.11665344	
1733732615444	0.0957489	
1733732615445	0.027770996	
1733732615446	-0.0415802	
1733732615447	-0.113601685	
1733732615448	-0.16471863	
1733732615449	-0.08880615	
1733732615450	0.00793457	
1733732615451	0.05508423	
1733732615452	0.12680054	
1733732615453	0.1259613	
1733732615454	0.065460205	
1733732615455	-0.014419556	
1733732615456	-0.086746216	
1733732615457	-0.07766724	
1733732615458	-0.07171631	
1733732615459	-0.07316589	
1733732615460	-0.078048706	
1733732615461	-0.08644104	
1733732615462	-0.06378174	
1733732615463	-0.036621094	
1733732615464	-0.004425049	
1733732615465	0.008850098	
1733732615466	0.0064849854	
1733732615467	0.022583008	
1733732615468	0.0315094	
1733732615469	0.037078857	
1733732615470	0.03944397	
1733732615471	0.03387451	
1733732615472	0.03387451	
1733732615473	0.02357483	
1733732615474	0.018920898	
1733732615475	0.025024414	
1733732615476	0.028762817	
1733732615477	0.0289917	
1733732615478	0.025405884	
1733732615479	0.027694702	
1733732615480	0.027542114	
1733732615481	0.022125244	
1733732615482	0.018157959	
1733732615483	0.015106201	
1733732615484	0.008010864	
1733732615485	-0.005493164	
1733732615486	-0.01701355	
1733732615487	-0.035858154	
1733732615488	-0.053482056	
1733732615489	-0.04600525	
1733732615490	-0.039138794	
1733732615491	-0.03555298	
1733732615492	-0.021209717	
1733732615493	-0.019073486	
1733732615494	-0.008621216	
1733732615495	8.392334E-4	
1733732615496	-0.0022125244	
1733732615497	-0.010681152	
1733732615498	-0.012130737	
1733732615499	-0.0037384033	
1733732615500	0.00289917	
1733732615501	0.0048065186	
1733732615502	0.0036621094	
1733732615503	0.009307861	
1733732615504	0.013961792	
1733732615505	0.013046265	
1733732615506	0.009689331	
1733732615507	0.012512207	
1733732615508	0.011749268	
1733732615509	0.010070801	
1733732615510	0.0119018555	
1733732615511	0.003967285	
1733732615512	0.0066375732	
1733732615513	5.340576E-4	
1733732615514	-0.009841919	
1733732615515	-7.6293945E-5	
1733732615516	-0.0034332275	
1733732615517	-0.0024414062	
1733732615518	0.0046539307	
1733732615519	-0.009155273	
1733732615520	-0.011138916	
1733732615521	-0.009841919	
1733732615522	-0.013580322	
1733732615523	-0.01449585	
1733732615524	-0.019989014	
1733732615525	-0.019683838	
1733732615526	-0.018234253	
1733732615527	-0.016326904	
1733732615528	-0.009918213	
1733732615529	0.0035858154	
1733732615530	0.007171631	
1733732615531	0.0104522705	
1733732615532	0.017623901	
1733732615533	0.009994507	
1733732615534	0.0090789795	
1733732615535	0.01373291	
1733732615536	0.015411377	
1733732615537	0.018920898	
1733732615538	0.019683838	
1733732615539	0.017242432	
1733732615540	0.014266968	
1733732615541	0.01586914	
1733732615542	0.014572144	
1733732615543	0.01121521	
1733732615544	0.0104522705	
1733732615545	0.0077819824	
1733732615546	0.0038909912	
1733732615547	5.340576E-4	
1733732615548	-0.0036621094	
1733732615549	-0.001449585	
1733732615550	-1.5258789E-4	
1733732615551	-0.005340576	
1733732615552	-3.0517578E-4	
1733732615553	0.004119873	
1733732615554	-5.340576E-4	
1733732615555	-0.0033569336	
1733732615556	-0.0021362305	
1733732615557	-0.004119873	
1733732615558	-0.00831604	
1733732615559	-0.010528564	
1733732615560	-0.014266968	
1733732615561	-0.013809204	
1733732615562	-0.016784668	
1733732615563	-0.025634766	
1733732615564	-0.026473999	
1733732615565	-0.021133423	
1733732615566	-0.015640259	
1733732615567	-0.01701355	
1733732615568	-0.015487671	
1733732615569	-0.008239746	
1733732615570	-0.0048065186	
1733732615571	-0.005645752	
1733732615572	-0.004348755	
1733732615573	0.005645752	
1733732615574	0.005645752	
1733732615575	-0.0020599365	
1733732615576	-0.0062561035	
1733732615577	-0.0061035156	
1733732615578	0.005264282	
1733732615579	0.009002686	
1733732615580	0.008087158	
1733732615581	0.025482178	
1733732615582	0.044631958	
1733732615583	0.040130615	
1733732615584	0.015029907	
1733732615585	7.6293945E-4	
1733732615586	0.011138916	
1733732615587	0.017089844	
1733732615588	0.018615723	
1733732615589	0.028686523	
1733732615590	0.03227234	
1733732615591	0.023651123	
1733732615592	0.019836426	
1733732615593	0.022201538	
1733732615594	0.01838684	
1733732615595	0.013427734	
1733732615596	0.008239746	
1733732615597	-0.007171631	
1733732615598	-0.016021729	
1733732615599	-0.023880005	
1733732615600	-0.030212402	
1733732615601	-0.025482178	
1733732615602	-0.02494812	
1733732615603	-0.023498535	
1733732615604	-0.015335083	
1733732615605	-0.017242432	
1733732615606	-0.031051636	
1733732615607	-0.027694702	
1733732615608	-0.028305054	
1733732615609	-0.041275024	
1733732615610	-0.03265381	
1733732615611	-0.031051636	
1733732615612	-0.029754639	
1733732615613	-0.023803711	
1733732615614	-0.013809204	
1733732615615	-0.0077819824	
1733732615616	-0.02822876	
1733732615617	-0.029754639	
1733732615618	-0.018157959	
1733732615619	-0.019302368	
1733732615620	-0.009384155	
1733732615621	0.0033569336	
1733732615622	0.024108887	
1733732615623	0.04486084	
1733732615624	0.04928589	
1733732615625	0.047225952	
1733732615626	0.04508972	
1733732615627	0.04310608	
1733732615628	0.038528442	
1733732615629	0.03112793	
1733732615630	0.031585693	
1733732615631	0.027008057	
1733732615632	0.022964478	
1733732615633	0.029144287	
1733732615634	0.030441284	
1733732615635	0.026473999	
1733732615636	0.024261475	
1733732615637	0.02067566	
1733732615638	0.014038086	
1733732615639	0.0050354004	
1733732615640	-5.340576E-4	
1733732615641	-0.0119018555	
1733732615642	-0.014724731	
1733732615643	-0.0061035156	
1733732615644	-0.004425049	
1733732615645	-0.002822876	
1733732615646	-0.0063323975	
1733732615647	-0.009384155	
1733732615648	-0.01121521	
1733732615649	-0.025558472	
1733732615650	-0.030059814	
1733732615651	-0.028305054	
1733732615652	-0.027770996	
1733732615653	-0.025634766	
1733732615654	-0.031051636	
1733732615655	-0.029220581	
1733732615656	-0.029067993	
1733732615657	-0.03730774	
1733732615658	-0.030593872	
1733732615659	-0.019073486	
1733732615660	-0.022506714	
1733732615661	-0.023269653	
1733732615662	-0.019302368	
1733732615663	-0.012054443	
1733732615664	-0.0048065186	
1733732615665	0.001449585	
1733732615666	0.010910034	
1733732615667	0.01159668	
1733732615668	0.01625061	
1733732615669	0.012893677	
1733732615670	0.004043579	
1733732615671	0.0104522705	
1733732615672	0.017471313	
1733732615673	0.027694702	
1733732615674	0.041732788	
1733732615675	0.05340576	
1733732615676	0.0630188	
1733732615677	0.06782532	
1733732615678	0.06011963	
1733732615679	0.033798218	
1733732615680	0.008087158	
1733732615681	0.0064849854	
1733732615682	0.019836426	
1733732615683	-7.6293945E-5	
1733732615684	-0.03929138	
1733732615685	-0.048065186	
1733732615686	-0.05256653	
1733732615687	-0.038757324	
1733732615688	-0.009689331	
1733732615689	-0.026016235	
1733732615690	-0.02532959	
1733732615691	-0.004501343	
1733732615692	-0.029754639	
1733732615693	-0.01663208	
1733732615694	0.0077819824	
1733732615695	0.01335144	
1733732615696	0.059127808	
1733732615697	0.03555298	
1733732615698	0.045318604	
1733732615699	0.15953064	
1733732615700	0.094680786	
1733732615701	-0.06347656	
1733732615702	-0.035324097	
1733732615703	0.08644104	
1733732615704	0.11260986	
1733732615705	0.014038086	
1733732615706	-0.12413025	
1733732615707	-0.2935028	
1733732615708	-0.4346466	
1733732615709	-0.37506104	
1733732615710	-0.15602112	
1733732615711	-0.004501343	
1733732615712	0.014038086	
1733732615713	0.045394897	
1733732615714	0.09849548	
1733732615715	0.11444092	
1733732615716	0.13702393	
1733732615717	0.14129639	
1733732615718	0.12741089	
1733732615719	0.12046814	
1733732615720	0.101242065	
1733732615721	0.09399414	
1733732615722	0.09124756	
1733732615723	0.08453369	
1733732615724	0.08148193	
1733732615725	0.06309509	
1733732615726	0.046081543	
1733732615727	0.030441284	
1733732615728	0.008163452	
1733732615729	-0.007247925	
1733732615730	-0.022125244	
1733732615731	-0.03211975	
1733732615732	-0.037002563	
1733732615733	-0.04425049	
1733732615734	-0.046310425	
1733732615735	-0.047607422	
1733732615736	-0.04951477	
1733732615737	-0.050354004	
1733732615738	-0.053710938	
1733732615739	-0.043945312	
1733732615740	-0.034561157	
1733732615741	-0.037765503	
1733732615742	-0.042877197	
1733732615743	-0.04814148	
1733732615744	-0.044784546	
1733732615745	-0.034866333	
1733732615746	-0.028762817	
1733732615747	-0.024261475	
1733732615748	-0.011062622	
1733732615749	-0.0045776367	
1733732615750	2.2888184E-4	
1733732615751	0.015487671	
1733732615752	0.029830933	
1733732615753	0.035095215	
1733732615754	0.022735596	
1733732615755	0.019226074	
1733732615756	0.02532959	
1733732615757	0.038604736	
1733732615758	0.055847168	
1733732615759	0.050735474	
1733732615760	0.039749146	
1733732615761	-0.010528564	
1733732615762	-0.0907135	
1733732615763	-0.11878967	
1733732615764	-0.08216858	
1733732615765	0.005340576	
1733732615766	0.102386475	
1733732615767	0.1890564	
1733732615768	0.2381897	
1733732615769	0.22285461	
1733732615770	0.117263794	
1733732615771	-0.04081726	
1733732615772	-0.10223389	
1733732615773	-0.08201599	
1733732615774	-0.059280396	
1733732615775	-0.11238098	
1733732615776	-0.22361755	
1733732615777	-0.18974304	
1733732615778	-0.091171265	
1733732615779	-0.06401062	
1733732615780	-0.01411438	
1733732615781	0.0045776367	
1733732615782	-0.0034332275	
1733732615783	0.01159668	
1733732615784	0.011367798	
1733732615785	0.01663208	
1733732615786	0.025100708	
1733732615787	0.03791809	
1733732615788	0.05378723	
1733732615789	0.050582886	
1733732615790	0.047302246	
1733732615791	0.04776001	
1733732615792	0.054473877	
1733732615793	0.054016113	
1733732615794	0.033111572	
1733732615795	0.020141602	
1733732615796	0.008621216	
1733732615797	0.0051116943	
1733732615798	0.01914978	
1733732615799	0.0075531006	
1733732615800	-0.019989014	
1733732615801	-0.03326416	
1733732615802	-0.033950806	
1733732615803	-0.026321411	
1733732615804	-0.024032593	
1733732615805	-0.012359619	
1733732615806	-0.004501343	
1733732615807	-0.043029785	
1733732615808	-0.087509155	
1733732615809	-0.0881958	
1733732615810	-0.078201294	
1733732615811	-0.08491516	
1733732615812	-0.026397705	
1733732615813	0.13648987	
1733732615814	0.24536133	
1733732615815	0.24459839	
1733732615816	0.20324707	
1733732615817	0.021591187	
1733732615818	-0.12321472	
1733732615819	-0.03425598	
1733732615820	-0.0104522705	
1733732615821	-0.09025574	
1733732615822	-0.055618286	
1733732615823	0.090789795	
1733732615824	0.05836487	
1733732615825	-0.12886047	
1733732615826	-0.13572693	
1733732615827	-0.08018494	
1733732615828	0.009002686	
1733732615829	0.0132751465	
1733732615830	-0.042266846	
1733732615831	0.17700195	
1733732615832	0.21469116	
1733732615833	-0.039978027	
1733732615834	-0.074920654	
1733732615835	-0.026931763	
1733732615836	-0.1158905	
1733732615837	-0.19737244	
1733732615838	-0.20889282	
1733732615839	-0.13374329	
1733732615840	0.009231567	
1733732615841	-0.038604736	
1733732615842	-0.1776886	
1733732615843	-0.16548157	
1733732615844	-0.1764679	
1733732615845	-0.024337769	
1733732615846	0.33920288	
1733732615847	0.48240662	
1733732615848	0.42991638	
1733732615849	0.41542053	
1733732615850	0.43945312	
1733732615851	0.20057678	
1733732615852	-0.2027893	
1733732615853	-0.29083252	
1733732615854	-0.18165588	
1733732615855	-0.14419556	
1733732615856	-0.19699097	
1733732615857	-0.20195007	
1733732615858	-0.14450073	
1733732615859	-0.103759766	
1733732615860	-0.066223145	
1733732615861	-0.024032593	
1733732615862	-0.00869751	
1733732615863	-0.0010681152	
1733732615864	0.012893677	
1733732615865	0.015487671	
1733732615866	0.0064086914	
1733732615867	-0.011749268	
1733732615868	-0.023727417	
1733732615869	0.0029754639	
1733732615870	0.078430176	
1733732615871	0.09010315	
1733732615872	0.027008057	
1733732615873	0.055389404	
1733732615874	0.09849548	
1733732615875	0.05104065	
1733732615876	0.08476257	
1733732615877	0.10185242	
1733732615878	-0.08102417	
1733732615879	-0.1915741	
1733732615880	-0.1020813	
1733732615881	0.030593872	
1733732615882	0.1296997	
1733732615883	0.20347595	
1733732615884	0.22621155	
1733732615885	0.08491516	
1733732615886	0.012512207	
1733732615887	0.029144287	
1733732615888	-0.12451172	
1733732615889	-0.18470764	
1733732615890	-0.108795166	
1733732615891	-0.04547119	
1733732615892	0.017318726	
1733732615893	-0.010604858	
1733732615894	-0.07789612	
1733732615895	-0.15235901	
1733732615896	-0.1940155	
1733732615897	-0.14312744	
1733732615898	-0.033950806	
1733732615899	0.102005005	
1733732615900	0.15991211	
1733732615901	0.11894226	
1733732615902	0.025787354	
1733732615903	-0.0074005127	
1733732615904	0.07789612	
1733732615905	-0.043182373	
1733732615906	-0.2999878	
1733732615907	-0.21194458	
1733732615908	-0.0012207031	
1733732615909	0.022735596	
1733732615910	0.008010864	
1733732615911	0.052719116	
1733732615912	0.09681702	
1733732615913	0.16593933	
1733732615914	0.2456665	
1733732615915	0.17562866	
1733732615916	0.012054443	
1733732615917	-0.078201294	
1733732615918	-0.05393982	
1733732615919	0.026626587	
1733732615920	0.03326416	
1733732615921	-0.009307861	
1733732615922	-0.006713867	
1733732615923	0.011291504	
1733732615924	0.0118255615	
1733732615925	-0.007171631	
1733732615926	-0.016403198	
1733732615927	-0.008468628	
1733732615928	-0.010070801	
1733732615929	-0.012435913	
1733732615930	-0.021209717	
1733732615931	-0.025558472	
1733732615932	-0.014877319	
1733732615933	-0.019226074	
1733732615934	-0.027694702	
1733732615935	-0.020217896	
1733732615936	-0.0074005127	
1733732615937	-0.0022888184	
1733732615938	-9.918213E-4	
1733732615939	-0.0032043457	
1733732615940	-0.012054443	
1733732615941	-0.0038909912	
1733732615942	0.0051116943	
1733732615943	7.6293945E-5	
1733732615944	0.005569458	
1733732615945	0.0045776367	
1733732615946	0.0023651123	
1733732615947	0.0025939941	
1733732615948	0.0022125244	
1733732615949	0.013885498	
1733732615950	0.015563965	
1733732615951	0.010299683	
1733732615952	0.0104522705	
1733732615953	0.01777649	
1733732615954	0.012817383	
1733732615955	-0.020446777	
1733732615956	-0.031585693	
1733732615957	-0.018844604	
1733732615958	-0.020751953	
1733732615959	-0.017700195	
1733732615960	-0.012359619	
1733732615961	-0.00869751	
1733732615962	-0.005722046	
1733732615963	-0.0077056885	
1733732615964	-0.0065612793	
1733732615965	-0.0038146973	
1733732615966	-0.006942749	
1733732615967	-0.010375977	
1733732615968	-0.0035858154	
1733732615969	-0.0051879883	
1733732615970	-5.340576E-4	
1733732615971	0.0036621094	
1733732615972	0.0037384033	
1733732615973	0.012588501	
1733732615974	0.012969971	
1733732615975	0.015487671	
1733732615976	0.011367798	
1733732615977	0.008773804	
1733732615978	0.012283325	
1733732615979	0.009155273	
1733732615980	0.014801025	
1733732615981	0.017471313	
1733732615982	0.011062622	
1733732615983	0.013122559	
1733732615984	0.014724731	
1733732615985	0.012588501	
1733732615986	0.0119018555	
1733732615987	0.009155273	
1733732615988	0.0061035156	
1733732615989	0.009155273	
1733732615990	0.0032806396	
1733732615991	-0.0064849854	
1733732615992	-0.004119873	
1733732615993	-0.007171631	
1733732615994	-0.014572144	
1733732615995	-0.01739502	
1733732615996	-0.015487671	
1733732615997	-0.013580322	
1733732615998	-0.023422241	
1733732615999	-0.021057129	
1733732616000	-0.01121521	
1733732616001	-0.01838684	
1733732616002	-0.02166748	
1733732616003	-0.013580322	
1733732616004	-0.009460449	
1733732616005	-0.0016784668	
1733732616006	0.008926392	
1733732616007	0.0045776367	
1733732616008	0.008163452	
1733732616009	0.020980835	
1733732616010	0.020217896	
1733732616011	0.028762817	
1733732616012	0.04043579	
1733732616013	0.036315918	
1733732616014	0.018692017	
1733732616015	-0.013580322	
1733732616016	-0.017089844	
1733732616017	0.0032043457	
1733732616018	-0.0034332275	
1733732616019	-0.014419556	
1733732616020	-0.02166748	
1733732616021	-0.024642944	
1733732616022	-0.009689331	
1733732616023	0.010147095	
1733732616024	0.026626587	
1733732616025	0.033340454	
1733732616026	0.0390625	
1733732616027	0.049591064	
1733732616028	0.03578186	
1733732616029	-0.020370483	
1733732616030	-0.07110596	
1733732616031	-0.08491516	
1733732616032	-0.07583618	
1733732616033	-0.044555664	
1733732616034	-0.034942627	
1733732616035	-0.051116943	
1733732616036	-0.043563843	
1733732616037	-0.021438599	
1733732616038	-1.5258789E-4	
1733732616039	0.015411377	
1733732616040	0.042877197	
1733732616041	0.066604614	
1733732616042	0.06088257	
1733732616043	0.05241394	
1733732616044	0.042266846	
1733732616045	0.029296875	
1733732616046	0.014190674	
1733732616047	-0.009613037	
1733732616048	-0.031661987	
1733732616049	-0.026931763	
1733732616050	0.014953613	
1733732616051	0.039520264	
1733732616052	0.020828247	
1733732616053	9.918213E-4	
1733732616054	-0.007247925	
1733732616055	-0.010299683	
1733732616056	-0.012207031	
1733732616057	-0.019378662	
1733732616058	-0.016784668	
1733732616059	-0.0061035156	
1733732616060	-0.004425049	
1733732616061	-0.013504028	
1733732616062	-0.023422241	
1733732616063	-0.00831604	
1733732616064	0.030975342	
1733732616065	0.051193237	
1733732616066	0.0592041	
1733732616067	0.06271362	
1733732616068	0.06324768	
1733732616069	0.07217407	
1733732616070	0.036697388	
1733732616071	-0.029296875	
1733732616072	-0.08483887	
1733732616073	-0.13092041	
1733732616074	-0.12664795	
1733732616075	-0.091781616	
1733732616076	-0.08995056	
1733732616077	-0.08522034	
1733732616078	-0.030441284	
1733732616079	0.019302368	
1733732616080	0.038223267	
1733732616081	0.070495605	
1733732616082	0.07949829	
1733732616083	0.06690979	
1733732616084	0.075683594	
1733732616085	0.0743103	
1733732616086	0.07644653	
1733732616087	0.073013306	
1733732616088	0.054397583	
1733732616089	0.057678223	
1733732616090	0.014572144	
1733732616091	-0.0466156	
1733732616092	-0.059661865	
1733732616093	-0.08117676	
1733732616094	-0.09803772	
1733732616095	-0.11100769	
1733732616096	-0.12504578	
1733732616097	-0.10650635	
1733732616098	-0.04989624	
1733732616099	0.031661987	
1733732616100	0.06378174	
1733732616101	0.051345825	
1733732616102	0.010986328	
1733732616103	-0.032348633	
1733732616104	3.0517578E-4	
1733732616105	0.025787354	
1733732616106	0.024032593	
1733732616107	0.04508972	
1733732616108	0.033340454	
1733732616109	0.016784668	
1733732616110	0.001449585	
1733732616111	-0.016937256	
1733732616112	-0.009918213	
1733732616113	-0.010070801	
1733732616114	0.009002686	
1733732616115	0.03753662	
1733732616116	0.029678345	
1733732616117	0.012664795	
1733732616118	-0.004196167	
1733732616119	-0.019302368	
1733732616120	-0.014038086	
1733732616121	0.0060272217	
1733732616122	0.023117065	
1733732616123	0.03501892	
1733732616124	0.026245117	
1733732616125	0.010070801	
1733732616126	0.015945435	
1733732616127	0.018157959	
1733732616128	0.021362305	
1733732616129	0.033187866	
1733732616130	0.007095337	
1733732616131	-0.009231567	
1733732616132	0.002822876	
1733732616133	-0.0073242188	
1733732616134	-0.025634766	
1733732616135	-0.016784668	
1733732616136	0.0038909912	
1733732616137	-0.002822876	
1733732616138	-0.012588501	
1733732616139	-0.02243042	
1733732616140	-0.0315094	
1733732616141	-0.028915405	
1733732616142	-0.012207031	
1733732616143	-0.009384155	
1733732616144	-0.015182495	
1733732616145	-0.0077056885	
1733732616146	0.0032043457	
1733732616147	0.02243042	
1733732616148	0.041656494	
1733732616149	0.052108765	
1733732616150	0.050430298	
1733732616151	-8.392334E-4	
1733732616152	-0.039215088	
1733732616153	-0.035247803	
1733732616154	-0.050201416	
1733732616155	-0.05531311	
1733732616156	-0.058517456	
1733732616157	-0.05256653	
1733732616158	-0.029220581	
1733732616159	-0.015487671	
1733732616160	-0.023422241	
1733732616161	-0.04837036	
1733732616162	-0.026855469	
1733732616163	0.015640259	
1733732616164	0.02319336	
1733732616165	0.023956299	
1733732616166	0.028839111	
1733732616167	0.035095215	
1733732616168	0.04600525	
1733732616169	0.035476685	
1733732616170	0.01701355	
1733732616171	0.02067566	
1733732616172	0.020523071	
1733732616173	0.016555786	
1733732616174	0.017623901	
1733732616175	0.01876831	
1733732616176	0.020751953	
1733732616177	0.008239746	
1733732616178	-0.0032806396	
1733732616179	-0.0037384033	
1733732616180	0.0022125244	
1733732616181	0.0104522705	
1733732616182	0.011672974	
1733732616183	0.022125244	
1733732616184	0.023803711	
1733732616185	0.01663208	
1733732616186	0.010223389	
1733732616187	-0.0015258789	
1733732616188	-0.015029907	
1733732616189	-0.018005371	
1733732616190	-0.01914978	
1733732616191	-0.02204895	
1733732616192	-0.010681152	
1733732616193	-0.0035858154	
1733732616194	-0.0050354004	
1733732616195	-0.016098022	
1733732616196	-0.022125244	
1733732616197	-0.013427734	
1733732616198	-0.009231567	
1733732616199	-0.012359619	
1733732616200	-0.024261475	
1733732616201	-0.023803711	
1733732616202	-0.020065308	
1733732616203	-0.019302368	
1733732616204	-0.015335083	
1733732616205	-0.015792847	
1733732616206	-0.0059509277	
1733732616207	0.009155273	
1733732616208	0.020065308	
1733732616209	0.022354126	
1733732616210	0.013656616	
1733732616211	0.009536743	
1733732616212	0.0064849854	
1733732616213	0.011672974	
1733732616214	0.02418518	
1733732616215	0.02029419	
1733732616216	0.009155273	
1733732616217	-3.0517578E-4	
1733732616218	0.0060272217	
1733732616219	0.009231567	
1733732616220	-0.012664795	
1733732616221	-0.031814575	
1733732616222	-0.03135681	
1733732616223	-0.01335144	
1733732616224	0.0025939941	
1733732616225	-9.918213E-4	
1733732616226	0.0073242188	
1733732616227	0.027618408	
1733732616228	0.035324097	
1733732616229	0.044937134	
1733732616230	0.060195923	
1733732616231	0.03677368	
1733732616232	0.0090789795	
1733732616233	-0.010681152	
1733732616234	-0.041885376	
1733732616235	-0.05470276	
1733732616236	-0.03845215	
1733732616237	-0.018310547	
1733732616238	-0.0029754639	
1733732616239	0.0032043457	
1733732616240	0.003967285	
1733732616241	-0.007171631	
1733732616242	-0.019454956	
1733732616243	-0.021896362	
1733732616244	-0.03364563	
1733732616245	-0.032348633	
1733732616246	-0.029144287	
1733732616247	-0.034332275	
1733732616248	-0.0077819824	
1733732616249	0.022888184	
1733732616250	0.024642944	
1733732616251	0.030593872	
1733732616252	0.041046143	
1733732616253	0.03944397	
1733732616254	0.029220581	
1733732616255	0.024490356	
1733732616256	0.029754639	
1733732616257	0.030212402	
1733732616258	0.019989014	
1733732616259	0.0064086914	
1733732616260	-0.004425049	
1733732616261	-0.006942749	
1733732616262	-0.0038909912	
1733732616263	-0.0064849854	
1733732616264	-0.0051879883	
1733732616265	-0.0035095215	
1733732616266	-0.012893677	
1733732616267	-0.028152466	
1733732616268	-0.025863647	
1733732616269	-0.010528564	
1733732616270	-6.1035156E-4	
1733732616271	9.918213E-4	
1733732616272	-0.013427734	
1733732616273	-0.027694702	
1733732616274	-0.033340454	
1733732616275	-0.02708435	
1733732616276	-0.0066375732	
1733732616277	0.013656616	
1733732616278	0.022583008	
1733732616279	0.0061798096	
1733732616280	-0.009155273	
1733732616281	-0.015487671	
1733732616282	-0.023727417	
1733732616283	-0.017089844	
1733732616284	-0.0017547607	
1733732616285	0.007247925	
1733732616286	0.01449585	
1733732616287	0.013961792	
1733732616288	0.0025177002	
1733732616289	-0.009689331	
1733732616290	-0.0119018555	
1733732616291	-0.0022125244	
1733732616292	0.023117065	
1733732616293	0.05393982	
1733732616294	0.051574707	
1733732616295	0.020370483	
1733732616296	0.007019043	
1733732616297	0.0024414062	
1733732616298	-0.008087158	
1733732616299	-0.004272461	
1733732616300	0.0073242188	
1733732616301	-0.00289917	
1733732616302	-0.01701355	
1733732616303	-0.016098022	
1733732616304	-0.0060272217	
1733732616305	-9.918213E-4	
1733732616306	-0.00541687	
1733732616307	-0.006790161	
1733732616308	-0.0037384033	
1733732616309	0.0012969971	
1733732616310	0.004272461	
1733732616311	0.005874634	
1733732616312	0.017547607	
1733732616313	0.018615723	
1733732616314	0.0032806396	
1733732616315	-0.012283325	
1733732616316	-0.019226074	
1733732616317	-0.015716553	
1733732616318	-0.012893677	
1733732616319	-0.01449585	
1733732616320	-0.015487671	
1733732616321	-0.018692017	
1733732616322	-0.015792847	
1733732616323	-0.015106201	
1733732616324	-0.0074005127	
1733732616325	0.009613037	
1733732616326	0.011291504	
1733732616327	0.008087158	
1733732616328	0.010528564	
1733732616329	0.0051116943	
1733732616330	0.002670288	
1733732616331	0.013046265	
1733732616332	0.012130737	
1733732616333	-0.00541687	
1733732616334	-0.0035095215	
1733732616335	0.016708374	
1733732616336	0.026550293	
1733732616337	0.017166138	
1733732616338	-0.01449585	
1733732616339	-0.03593445	
1733732616340	-0.020446777	
1733732616341	-0.013656616	
1733732616342	-0.015029907	
1733732616343	-0.016555786	
1733732616344	-0.018157959	
1733732616345	0.024719238	
1733732616346	0.06278992	
1733732616347	0.09185791	
1733732616348	0.08506775	
1733732616349	0.0012969971	
1733732616350	-0.056533813	
1733732616351	-0.048828125	
1733732616352	-0.044021606	
1733732616353	-0.032958984	
1733732616354	-0.0036621094	
1733732616355	-9.1552734E-4	
1733732616356	-0.0032043457	
1733732616357	0.018005371	
1733732616358	0.047836304	
1733732616359	0.050582886	
1733732616360	0.030212402	
1733732616361	0.011062622	
1733732616362	-0.004425049	
1733732616363	-0.036087036	
1733732616364	-0.042800903	
1733732616365	-0.04623413	
1733732616366	-0.0466156	
1733732616367	-0.019760132	
1733732616368	-0.0073242188	
1733732616369	-0.0074005127	
1733732616370	0.0047302246	
1733732616371	-0.010147095	
1733732616372	-0.02418518	
1733732616373	-0.017929077	
1733732616374	-0.001373291	
1733732616375	0.0031280518	
1733732616376	-0.010986328	
1733732616377	-0.0076293945	
1733732616378	0.003967285	
1733732616379	0.0025939941	
1733732616380	-3.0517578E-4	
1733732616381	0.0022125244	
1733732616382	0.01625061	
1733732616383	0.02166748	
1733732616384	0.017242432	
1733732616385	0.0031280518	
1733732616386	-0.009536743	
1733732616387	-0.014343262	
1733732616388	-0.009460449	
1733732616389	0.003967285	
1733732616390	0.008392334	
1733732616391	0.012512207	
1733732616392	-0.007019043	
1733732616393	-0.026168823	
1733732616394	-0.0118255615	
1733732616395	7.6293945E-4	
1733732616396	0.044555664	
1733732616397	0.11222839	
1733732616398	0.12130737	
1733732616399	0.089416504	
1733732616400	0.08628845	
1733732616401	0.10269165	
1733732616402	0.06958008	
1733732616403	0.049591064	
1733732616404	0.049209595	
1733732616405	0.01083374	
1733732616406	-0.024719238	
1733732616407	-0.08018494	
1733732616408	-0.13710022	
1733732616409	-0.111083984	
1733732616410	-0.06690979	
1733732616411	-0.06034851	
1733732616412	-0.08377075	
1733732616413	-0.09666443	
1733732616414	-0.1499939	
1733732616415	-0.2559662	
1733732616416	-0.2684021	
1733732616417	-0.23529053	
1733732616418	-0.14511108	
1733732616419	0.057907104	
1733732616420	0.13153076	
1733732616421	0.09651184	
1733732616422	0.14228821	
1733732616423	0.16014099	
1733732616424	0.19104004	
1733732616425	0.27671814	
1733732616426	0.25146484	
1733732616427	0.10284424	
1733732616428	-0.066604614	
1733732616429	-0.16105652	
1733732616430	-0.12672424	
1733732616431	-0.024642944	
1733732616432	0.01914978	
1733732616433	0.03868103	
1733732616434	0.10765076	
1733732616435	0.072784424	
1733732616436	-0.039138794	
1733732616437	-0.018539429	
1733732616438	0.08308411	
1733732616439	0.1802063	
1733732616440	0.14389038	
1733732616441	-0.06538391	
1733732616442	-0.18096924	
1733732616443	-0.15731812	
1733732616444	-0.08003235	
1733732616445	-0.017852783	
1733732616446	0.0034332275	
1733732616447	0.08773804	
1733732616448	0.08270264	
1733732616449	0.038757324	
1733732616450	0.050735474	
1733732616451	-0.04776001	
1733732616452	-0.14389038	
1733732616453	-0.14289856	
1733732616454	-0.07293701	
1733732616455	-0.00869751	
1733732616456	-0.002746582	
1733732616457	0.043563843	
1733732616458	0.04837036	
1733732616459	0.01739502	
1733732616460	0.049362183	
1733732616461	0.06362915	
1733732616462	0.07911682	
1733732616463	0.080718994	
1733732616464	0.0541687	
1733732616465	-0.02494812	
1733732616466	-0.21133423	
1733732616467	-0.3591156	
1733732616468	-0.3528595	
1733732616469	-0.13725281	
1733732616470	0.15434265	
1733732616471	0.26901245	
1733732616472	0.22453308	
1733732616473	0.10055542	
1733732616474	-0.038909912	
1733732616475	-0.10620117	
1733732616476	-0.15815735	
1733732616477	-0.21186829	
1733732616478	-0.17715454	
1733732616479	-0.062332153	
1733732616480	0.04447937	
1733732616481	0.08796692	
1733732616482	0.11917114	
1733732616483	0.17189026	
1733732616484	0.18745422	
1733732616485	0.19424438	
1733732616486	0.1776886	
1733732616487	0.13023376	
1733732616488	0.12779236	
1733732616489	0.13572693	
1733732616490	0.1133728	
1733732616491	0.089035034	
1733732616492	0.034942627	
1733732616493	-0.02128601	
1733732616494	-0.017852783	
1733732616495	-0.0063323975	
1733732616496	-0.04257202	
1733732616497	-0.078201294	
1733732616498	-0.096206665	
1733732616499	-0.1550293	
1733732616500	-0.26123047	
1733732616501	-0.24528503	
1733732616502	-0.031433105	
1733732616503	0.10757446	
1733732616504	0.12702942	
1733732616505	0.13397217	
1733732616506	0.054855347	
1733732616507	-0.030670166	
1733732616508	-0.08216858	
1733732616509	-0.14816284	
1733732616510	-0.23231506	
1733732616511	-0.27374268	
1733732616512	-0.22712708	
1733732616513	-0.10688782	
1733732616514	-0.026855469	
1733732616515	-0.04386902	
1733732616516	-0.056152344	
1733732616517	-0.047454834	
1733732616518	-0.03982544	
1733732616519	0.040740967	
1733732616520	0.09414673	
1733732616521	0.044403076	
1733732616522	0.051498413	
1733732616523	0.09857178	
1733732616524	0.1260376	
1733732616525	0.18478394	
1733732616526	0.19989014	
1733732616527	0.1637268	
1733732616528	0.131073	
1733732616529	0.10406494	
1733732616530	0.07026672	
1733732616531	0.033798218	
1733732616532	0.043411255	
1733732616533	0.06996155	
1733732616534	0.057754517	
1733732616535	0.038375854	
1733732616536	0.033187866	
1733732616537	0.022735596	
1733732616538	0.009460449	
1733732616539	-0.012893677	
1733732616540	-0.039901733	
1733732616541	-0.04928589	
1733732616542	-0.05065918	
1733732616543	-0.048217773	
1733732616544	-0.03883362	
1733732616545	-0.031967163	
1733732616546	-0.02281189	
1733732616547	-0.01777649	
1733732616548	-0.021896362	
1733732616549	-0.0011444092	
1733732616550	-0.008010864	
1733732616551	-0.070114136	
1733732616552	-0.12084961	
1733732616553	-0.13053894	
1733732616554	-0.12123108	
1733732616555	-0.10757446	
1733732616556	-0.092163086	
1733732616557	-0.07873535	
1733732616558	-0.05760193	
1733732616559	-0.038223267	
1733732616560	-0.015411377	
1733732616561	0.014724731	
1733732616562	0.033721924	
1733732616563	0.05104065	
1733732616564	0.065460205	
1733732616565	0.06828308	
1733732616566	0.069503784	
1733732616567	0.06629944	
1733732616568	0.061340332	
1733732616569	0.047607422	
1733732616570	0.03730774	
1733732616571	0.033569336	
1733732616572	0.02670288	
1733732616573	0.02609253	
1733732616574	0.020828247	
1733732616575	0.0119018555	
1733732616576	0.013427734	
1733732616577	0.005340576	
1733732616578	-0.0031280518	
1733732616579	-0.0024414062	
1733732616580	-0.0022125244	
1733732616581	-0.0023651123	
1733732616582	-0.008239746	
1733732616583	-0.007019043	
1733732616584	-0.0011444092	
1733732616585	-0.005722046	
1733732616586	-0.0049591064	
1733732616587	-0.0074768066	
1733732616588	-0.014572144	
1733732616589	-0.005645752	
1733732616590	-0.0077819824	
1733732616591	-0.012817383	
1733732616592	-0.0035858154	
1733732616593	-0.004501343	
1733732616594	-0.008926392	
1733732616595	-0.0038146973	
1733732616596	-0.004119873	
1733732616597	-0.0061798096	
1733732616598	-0.002670288	
1733732616599	-0.0017547607	
1733732616600	0.0031280518	
1733732616601	0.00541687	
1733732616602	-3.0517578E-4	
1733732616603	9.1552734E-4	
1733732616604	0.005340576	
1733732616605	0.0012207031	
1733732616606	-0.0037384033	
1733732616607	-0.005340576	
1733732616608	-0.0074768066	
1733732616609	-0.0077056885	
1733732616610	-0.0104522705	
1733732616611	-0.012054443	
1733732616612	-0.0074005127	
1733732616613	-0.009765625	
1733732616614	-0.019454956	
1733732616615	-0.023956299	
1733732616616	-0.022125244	
1733732616617	-0.01739502	
1733732616618	-0.00831604	
1733732616619	0.0	
1733732616620	0.0048065186	
1733732616621	0.008087158	
1733732616622	0.011138916	
1733732616623	0.012969971	
1733732616624	0.01121521	
1733732616625	0.011749268	
1733732616626	0.00831604	
1733732616627	0.009536743	
1733732616628	0.017471313	
1733732616629	0.024261475	
1733732616630	0.03440857	
1733732616631	0.035705566	
1733732616632	0.020980835	
1733732616633	0.013427734	
1733732616634	0.014572144	
1733732616635	0.011978149	
1733732616636	0.016937256	
1733732616637	0.023956299	
1733732616638	0.02456665	
1733732616639	0.024642944	
1733732616640	0.02609253	
1733732616641	0.031204224	
1733732616642	0.02029419	
1733732616643	-0.009841919	
1733732616644	-0.043182373	
1733732616645	-0.06347656	
1733732616646	-0.05760193	
1733732616647	-0.048294067	
1733732616648	-0.041656494	
1733732616649	-0.032196045	
1733732616650	-0.026626587	
1733732616651	-0.015335083	
1733732616652	-0.015106201	
1733732616653	-0.015563965	
1733732616654	-0.010604858	
1733732616655	-0.004348755	
1733732616656	-0.0051879883	
1733732616657	-0.002746582	
1733732616658	0.0025939941	
1733732616659	7.6293945E-4	
1733732616660	-7.6293945E-5	
1733732616661	0.0049591064	
1733732616662	0.0077056885	
1733732616663	0.015106201	
1733732616664	0.016326904	
1733732616665	0.017547607	
1733732616666	0.017700195	
1733732616667	0.0035095215	
1733732616668	0.0012969971	
1733732616669	0.004119873	
1733732616670	0.0025177002	
1733732616671	0.0018310547	
1733732616672	-1.5258789E-4	
1733732616673	-0.0032806396	
1733732616674	-0.0032806396	
1733732616675	1.5258789E-4	
1733732616676	-0.005722046	
1733732616677	-0.009155273	
1733732616678	-0.005569458	
1733732616679	-0.0018310547	
1733732616680	7.6293945E-4	
1733732616681	0.0025177002	
1733732616682	0.0022888184	
1733732616683	-0.00831604	
1733732616684	-0.009384155	
1733732616685	7.6293945E-4	
1733732616686	9.918213E-4	
1733732616687	0.0024414062	
1733732616688	0.009384155	
1733732616689	0.008544922	
1733732616690	0.011062622	
1733732616691	0.01449585	
1733732616692	0.0022125244	
1733732616693	0.0019836426	
1733732616694	0.009994507	
1733732616695	0.0022125244	
1733732616696	0.0032806396	
1733732616697	0.008468628	
1733732616698	0.010604858	
1733732616699	0.012435913	
1733732616700	0.0065612793	
1733732616701	0.0074005127	
1733732616702	0.007095337	
1733732616703	0.0037384033	
1733732616704	0.0020599365	
1733732616705	-0.0016784668	
1733732616706	-7.6293945E-4	
1733732616707	-0.0019836426	
1733732616708	-0.002822876	
1733732616709	5.340576E-4	
1733732616710	0.0032043457	
1733732616711	0.0049591064	
1733732616712	0.001449585	
1733732616713	-0.0032806396	
1733732616714	-0.0025939941	
1733732616715	-0.004348755	
1733732616716	-0.012435913	
1733732616717	-0.016937256	
1733732616718	-0.016098022	
1733732616719	-0.02128601	
1733732616720	-0.025100708	
1733732616721	-0.024719238	
1733732616722	-0.027542114	
1733732616723	-0.023345947	
1733732616724	-0.018844604	
1733732616725	-0.011749268	
1733732616726	-0.0024414062	
1733732616727	-5.340576E-4	
1733732616728	0.002670288	
1733732616729	0.008621216	
1733732616730	0.010223389	
1733732616731	0.0074768066	
1733732616732	0.013427734	
1733732616733	0.020065308	
1733732616734	0.01914978	
1733732616735	0.012435913	
1733732616736	-9.918213E-4	
1733732616737	-0.002822876	
1733732616738	0.002670288	
1733732616739	-0.0011444092	
1733732616740	-0.007095337	
1733732616741	-0.006790161	
1733732616742	0.0073242188	
1733732616743	0.011978149	
1733732616744	0.012588501	
1733732616745	0.020828247	
1733732616746	0.019989014	
1733732616747	0.021057129	
1733732616748	0.03036499	
1733732616749	0.021743774	
1733732616750	0.008468628	
1733732616751	0.0025939941	
1733732616752	-0.002822876	
1733732616753	-0.012435913	
1733732616754	-0.02708435	
1733732616755	-0.04058838	
1733732616756	-0.032043457	
1733732616757	0.0074005127	
1733732616758	0.024719238	
1733732616759	0.021133423	
1733732616760	0.013580322	
1733732616761	0.009765625	
1733732616762	0.018005371	
1733732616763	0.021514893	
1733732616764	0.023269653	
1733732616765	0.019378662	
1733732616766	0.011672974	
1733732616767	0.004348755	
1733732616768	-0.0051879883	
1733732616769	-0.011367798	
1733732616770	-0.014724731	
1733732616771	-0.01777649	
1733732616772	-0.022125244	
1733732616773	-0.02746582	
1733732616774	-0.02456665	
1733732616775	-0.018310547	
1733732616776	-0.008392334	
1733732616777	-3.8146973E-4	
1733732616778	-0.013504028	
1733732616779	-0.023345947	
1733732616780	-0.016784668	
1733732616781	-0.026779175	
1733732616782	-0.030441284	
1733732616783	-0.020904541	
1733732616784	-0.023498535	
1733732616785	-0.025634766	
1733732616786	-0.028305054	
1733732616787	-0.0315094	
1733732616788	-0.02243042	
1733732616789	-0.025787354	
1733732616790	-0.02494812	
1733732616791	-0.01373291	
1733732616792	-0.0022888184	
1733732616793	0.008850098	
1733732616794	0.01159668	
1733732616795	0.024795532	
1733732616796	0.032348633	
1733732616797	0.034713745	
1733732616798	0.043029785	
1733732616799	0.04371643	
1733732616800	0.04798889	
1733732616801	0.046539307	
1733732616802	0.036010742	
1733732616803	0.02456665	
1733732616804	0.029296875	
1733732616805	0.025177002	
1733732616806	0.009613037	
1733732616807	0.010604858	
1733732616808	0.01777649	
1733732616809	0.025863647	
1733732616810	0.034179688	
1733732616811	0.031280518	
1733732616812	0.028076172	
1733732616813	0.0390625	
1733732616814	0.036621094	
1733732616815	0.021972656	
1733732616816	0.011291504	
1733732616817	-0.010910034	
1733732616818	-0.042648315	
1733732616819	-0.08415222	
1733732616820	-0.09727478	
1733732616821	-0.062332153	
1733732616822	-0.026473999	
1733732616823	-0.0035858154	
1733732616824	-0.021133423	
1733732616825	-0.05493164	
1733732616826	-0.02670288	
1733732616827	0.016326904	
1733732616828	-0.009918213	
1733732616829	-0.040130615	
1733732616830	0.03791809	
1733732616831	0.11375427	
1733732616832	0.05279541	
1733732616833	-0.046691895	
1733732616834	-0.089035034	
1733732616835	-0.11756897	
1733732616836	-0.12321472	
1733732616837	0.033493042	
1733732616838	0.16227722	
1733732616839	0.034713745	
1733732616840	-0.072784424	
1733732616841	-0.05645752	
1733732616842	-0.0466156	
1733732616843	-0.04737854	
1733732616844	-0.040664673	
1733732616845	0.0019836426	
1733732616846	0.035247803	
1733732616847	0.041503906	
1733732616848	0.050811768	
1733732616849	0.054244995	
1733732616850	0.056915283	
1733732616851	0.045013428	
1733732616852	0.032043457	
1733732616853	0.040664673	
1733732616854	0.04196167	
1733732616855	0.042877197	
1733732616856	0.05569458	
1733732616857	0.06225586	
1733732616858	0.050582886	
1733732616859	0.02861023	
1733732616860	0.02319336	
1733732616861	0.018310547	
1733732616862	-0.015716553	
1733732616863	-0.045547485	
1733732616864	-0.004425049	
1733732616865	0.05203247	
1733732616866	0.00831604	
1733732616867	-0.02822876	
1733732616868	0.020980835	
1733732616869	0.007095337	
1733732616870	-0.09147644	
1733732616871	-0.1461029	
1733732616872	-0.12779236	
1733732616873	-0.13801575	
1733732616874	-0.18035889	
1733732616875	-0.17272949	
1733732616876	-0.14656067	
1733732616877	-0.13381958	
1733732616878	-0.11161804	
1733732616879	-0.0592041	
1733732616880	0.026245117	
1733732616881	0.065460205	
1733732616882	0.09475708	
1733732616883	0.21568298	
1733732616884	0.28541565	
1733732616885	0.2533722	
1733732616886	0.18455505	
1733732616887	0.07247925	
1733732616888	-0.03730774	
1733732616889	-0.093307495	
1733732616890	-0.041503906	
1733732616891	0.007095337	
1733732616892	-0.052947998	
1733732616893	-0.011444092	
1733732616894	0.18119812	
1733732616895	0.2521515	
1733732616896	0.2128601	
1733732616897	0.24238586	
1733732616898	0.18455505	
1733732616899	0.078125	
1733732616900	-0.0995636	
1733732616901	-0.45455933	
1733732616902	-0.5680847	
1733732616903	-0.44082642	
1733732616904	-0.3111267	
1733732616905	-0.043563843	
1733732616906	0.31478882	
1733732616907	0.53466797	
1733732616908	0.42808533	
1733732616909	-0.028152466	
1733732616910	-0.35499573	
1733732616911	-0.22544861	
1733732616912	0.0075531006	
1733732616913	0.112075806	
1733732616914	0.067214966	
1733732616915	-0.0667572	
1733732616916	-0.15335083	
1733732616917	-0.21217346	
1733732616918	-0.105895996	
1733732616919	0.14816284	
1733732616920	0.12664795	
1733732616921	-0.21263123	
1733732616922	-0.39360046	
1733732616923	-0.20744324	
1733732616924	0.0025177002	
1733732616925	0.08163452	
1733732616926	0.283432	
1733732616927	0.46722412	
1733732616928	0.43891907	
1733732616929	0.31204224	
1733732616930	0.07026672	
1733732616931	-0.09346008	
1733732616932	-0.07080078	
1733732616933	-0.12626648	
1733732616934	-0.22727966	
1733732616935	-0.21720886	
1733732616936	-0.19630432	
1733732616937	-0.14656067	
1733732616938	-0.00289917	
1733732616939	0.09422302	
1733732616940	0.057907104	
1733732616941	0.07537842	
1733732616942	0.24711609	
1733732616943	0.36849976	
1733732616944	0.19264221	
1733732616945	-0.05050659	
1733732616946	-0.17311096	
1733732616947	-0.28045654	
1733732616948	-0.23490906	
1733732616949	-0.07476807	
1733732616950	0.037384033	
1733732616951	0.0869751	
1733732616952	0.10871887	
1733732616953	0.08010864	
1733732616954	0.0466156	
1733732616955	0.12390137	
1733732616956	0.119628906	
1733732616957	-0.010757446	
1733732616958	-0.1826477	
1733732616959	-0.3539276	
1733732616960	-0.27908325	
1733732616961	-0.12878418	
1733732616962	-0.08079529	
1733732616963	0.14396667	
1733732616964	0.29899597	
1733732616965	0.28907776	
1733732616966	0.3313446	
1733732616967	0.11634827	
1733732616968	-0.12107849	
1733732616969	-0.19416809	
1733732616970	-0.30212402	
1733732616971	-0.26054382	
1733732616972	-0.13061523	
1733732616973	-0.09429932	
1733732616974	0.0049591064	
1733732616975	0.31089783	
1733732616976	0.48576355	
1733732616977	0.32661438	
1733732616978	0.12069702	
1733732616979	-0.15396118	
1733732616980	-0.370636	
1733732616981	-0.35118103	
1733732616982	-0.27183533	
1733732616983	-0.127182	
1733732616984	-0.01876831	
1733732616985	0.025405884	
1733732616986	-0.0034332275	
1733732616987	-0.12527466	
1733732616988	0.012893677	
1733732616989	0.34088135	
1733732616990	0.3148651	
1733732616991	0.06965637	
1733732616992	0.13755798	
1733732616993	0.315094	
1733732616994	0.2002716	
1733732616995	-0.10421753	
1733732616996	-0.28793335	
1733732616997	-0.17059326	
1733732616998	0.06538391	
1733732616999	0.07621765	
1733732617000	-0.031814575	
1733732617001	-0.04890442	
1733732617002	-0.02281189	
1733732617003	-0.03227234	
1733732617004	-0.10192871	
1733732617005	-0.12359619	
1733732617006	-0.07316589	
1733732617007	-0.06225586	
1733732617008	-0.060577393	
1733732617009	-0.025863647	
1733732617010	-0.0011444092	
1733732617011	0.02494812	
1733732617012	0.041732788	
1733732617013	0.04058838	
1733732617014	0.045394897	
1733732617015	0.041732788	
1733732617016	0.031051636	
1733732617017	0.028305054	
1733732617018	0.02746582	
1733732617019	0.028381348	
1733732617020	0.023422241	
1733732617021	-7.6293945E-4	
1733732617022	-0.0016021729	
1733732617023	0.017089844	
1733732617024	0.022354126	
1733732617025	0.021133423	
1733732617026	0.010910034	
1733732617027	0.003967285	
1733732617028	0.005340576	
1733732617029	0.0050354004	
1733732617030	0.004501343	
1733732617031	0.0047302246	
1733732617032	0.0023651123	
1733732617033	-0.0022888184	
1733732617034	-0.0012207031	
1733732617035	-0.004196167	
1733732617036	-0.003967285	
1733732617037	-0.0036621094	
1733732617038	-0.013427734	
1733732617039	-0.008087158	
1733732617040	-0.005340576	
1733732617041	-0.014038086	
1733732617042	-0.014724731	
1733732617043	-0.01411438	
1733732617044	-0.013122559	
1733732617045	-0.014343262	
1733732617046	-0.022659302	
1733732617047	-0.01701355	
1733732617048	-0.015106201	
1733732617049	-0.022277832	
1733732617050	-0.025100708	
1733732617051	-0.01739502	
1733732617052	-0.013961792	
1733732617053	-0.019607544	
1733732617054	-0.013504028	
1733732617055	-0.0077819824	
1733732617056	-0.0038909912	
1733732617057	-0.004043579	
1733732617058	-0.0047302246	
1733732617059	-0.0061035156	
1733732617060	-0.002746582	
1733732617061	0.0063323975	
1733732617062	0.017700195	
1733732617063	0.019607544	
1733732617064	0.017623901	
1733732617065	0.024032593	
1733732617066	0.026473999	
1733732617067	0.025939941	
1733732617068	0.022201538	
1733732617069	0.024032593	
1733732617070	0.02708435	
1733732617071	0.019607544	
1733732617072	0.02128601	
1733732617073	0.024032593	
1733732617074	0.017242432	
1733732617075	0.014572144	
1733732617076	0.011291504	
1733732617077	0.0051879883	
1733732617078	0.0051879883	
1733732617079	-0.0032043457	
1733732617080	-0.012817383	
1733732617081	-0.02128601	
1733732617082	-0.032424927	
1733732617083	-0.026321411	
1733732617084	-0.0146484375	
1733732617085	-0.019073486	
1733732617086	-0.0074005127	
1733732617087	0.008926392	
1733732617088	0.012512207	
1733732617089	0.011672974	
1733732617090	0.0061798096	
1733732617091	-0.0010681152	
1733732617092	-0.01373291	
1733732617093	-0.02204895	
1733732617094	-0.01663208	
1733732617095	-0.020141602	
1733732617096	-0.03326416	
1733732617097	-0.050354004	
1733732617098	-0.05104065	
1733732617099	-0.020141602	
1733732617100	0.017166138	
1733732617101	0.039749146	
1733732617102	0.047607422	
1733732617103	0.06111145	
1733732617104	0.06523132	
1733732617105	0.06652832	
1733732617106	0.07545471	
1733732617107	0.046539307	
1733732617108	0.017166138	
1733732617109	9.1552734E-4	
1733732617110	-0.035705566	
1733732617111	-0.0541687	
1733732617112	-0.046463013	
1733732617113	-0.047836304	
1733732617114	-0.05706787	
1733732617115	-0.05432129	
1733732617116	-0.04333496	
1733732617117	-0.034713745	
1733732617118	-0.04096985	
1733732617119	-0.045776367	
1733732617120	-0.034103394	
1733732617121	-0.011138916	
1733732617122	0.014801025	
1733732617123	0.02960205	
1733732617124	0.035858154	
1733732617125	0.038375854	
1733732617126	0.039901733	
1733732617127	0.053024292	
1733732617128	0.054016113	
1733732617129	0.031051636	
1733732617130	0.015335083	
1733732617131	0.030899048	
1733732617132	0.06576538	
1733732617133	0.057296753	
1733732617134	0.00831604	
1733732617135	-0.006790161	
1733732617136	-0.025634766	
1733732617137	-0.05722046	
1733732617138	-0.065841675	
1733732617139	-0.091934204	
1733732617140	-0.114746094	
1733732617141	-0.09750366	
1733732617142	-0.056381226	
1733732617143	-0.015106201	
1733732617144	0.024032593	
1733732617145	0.06225586	
1733732617146	0.07064819	
1733732617147	0.05531311	
1733732617148	0.047607422	
1733732617149	0.037231445	
1733732617150	0.029296875	
1733732617151	0.023803711	
1733732617152	-0.013504028	
1733732617153	-0.028915405	
1733732617154	0.010604858	
1733732617155	0.03173828	
1733732617156	0.045013428	
1733732617157	0.06011963	
1733732617158	0.041427612	
1733732617159	0.012435913	
1733732617160	0.015487671	
1733732617161	0.018157959	
1733732617162	-0.010147095	
1733732617163	-0.0340271	
1733732617164	-0.06614685	
1733732617165	-0.09994507	
1733732617166	-0.056915283	
1733732617167	0.021743774	
1733732617168	0.046310425	
1733732617169	0.043182373	
1733732617170	0.0315094	
1733732617171	-0.009765625	
1733732617172	-0.06477356	
1733732617173	-0.08850098	
1733732617174	-0.058059692	
1733732617175	-0.004348755	
1733732617176	0.020523071	
1733732617177	0.026245117	
1733732617178	0.038757324	
1733732617179	0.05104065	
1733732617180	0.044784546	
1733732617181	0.017852783	
1733732617182	-0.0011444092	
1733732617183	0.03135681	
1733732617184	0.0667572	
1733732617185	0.04096985	
1733732617186	-0.0074768066	
1733732617187	-0.049972534	
1733732617188	-0.083847046	
1733732617189	-0.105895996	
1733732617190	-0.10002136	
1733732617191	-0.07675171	
1733732617192	-0.058670044	
1733732617193	-0.044708252	
1733732617194	-0.044174194	
1733732617195	-0.03829956	
1733732617196	-0.0049591064	
1733732617197	0.03715515	
1733732617198	0.060424805	
1733732617199	0.06866455	
1733732617200	0.08811951	
1733732617201	0.10467529	
1733732617202	0.09140015	
1733732617203	0.06088257	
1733732617204	0.027542114	
1733732617205	-0.0022125244	
1733732617206	-0.028152466	
1733732617207	-0.055618286	
1733732617208	-0.06652832	
1733732617209	-0.031661987	
1733732617210	-0.005645752	
1733732617211	-0.014801025	
1733732617212	-0.012283325	
1733732617213	-3.8146973E-4	
1733732617214	0.013580322	
1733732617215	0.01121521	
1733732617216	0.0022888184	
1733732617217	0.02166748	
1733732617218	0.046844482	
1733732617219	0.060653687	
1733732617220	0.0617218	
1733732617221	0.062332153	
1733732617222	0.06919861	
1733732617223	0.038528442	
1733732617224	0.0030517578	
1733732617225	-0.010681152	
1733732617226	-0.018615723	
1733732617227	-0.033950806	
1733732617228	-0.050735474	
1733732617229	-0.050735474	
1733732617230	-0.050582886	
1733732617231	-0.04737854	
1733732617232	-0.029296875	
1733732617233	-0.0146484375	
1733732617234	-0.010528564	
1733732617235	-0.012893677	
1733732617236	-0.018539429	
1733732617237	-0.016860962	
1733732617238	-0.030059814	
1733732617239	-0.06454468	
1733732617240	-0.060424805	
1733732617241	-0.026550293	
1733732617242	-0.026626587	
1733732617243	-0.021057129	
1733732617244	0.01335144	
1733732617245	0.029144287	
1733732617246	0.048675537	
1733732617247	0.064468384	
1733732617248	0.06744385	
1733732617249	0.07888794	
1733732617250	0.049209595	
1733732617251	0.0024414062	
1733732617252	-0.0038909912	
1733732617253	0.001449585	
1733732617254	-0.008621216	
1733732617255	-0.011138916	
1733732617256	-0.0035095215	
1733732617257	-0.005874634	
1733732617258	-0.014419556	
1733732617259	-0.016937256	
1733732617260	-0.00869751	
1733732617261	-0.0022888184	
1733732617262	-0.005569458	
1733732617263	-0.010910034	
1733732617264	-0.005493164	
1733732617265	0.004501343	
1733732617266	-0.0051116943	
1733732617267	-0.002746582	
1733732617268	0.02281189	
1733732617269	0.023651123	
1733732617270	0.017089844	
1733732617271	0.0023651123	
1733732617272	-0.018081665	
1733732617273	-0.005569458	
1733732617274	0.008468628	
1733732617275	0.020065308	
1733732617276	0.029907227	
1733732617277	0.021896362	
1733732617278	0.01159668	
1733732617279	-0.012207031	
1733732617280	-0.03868103	
1733732617281	-0.05340576	
1733732617282	-0.05996704	
1733732617283	-0.060653687	
1733732617284	-0.064697266	
1733732617285	-0.04508972	
1733732617286	-0.0047302246	
1733732617287	0.015335083	
1733732617288	0.02746582	
1733732617289	0.036697388	
1733732617290	0.028305054	
1733732617291	0.020751953	
1733732617292	0.02029419	
1733732617293	0.02571106	
1733732617294	0.03677368	
1733732617295	0.037994385	
1733732617296	0.023345947	
1733732617297	0.017242432	
1733732617298	0.01739502	
1733732617299	0.005264282	
1733732617300	-0.008850098	
1733732617301	-0.014190674	
1733732617302	-0.010070801	
1733732617303	-0.017547607	
1733732617304	-0.015716553	
1733732617305	0.010223389	
1733732617306	0.012130737	
1733732617307	-4.5776367E-4	
1733732617308	0.010986328	
1733732617309	0.016784668	
1733732617310	0.02357483	
1733732617311	0.03807068	
1733732617312	0.015258789	
1733732617313	-0.0104522705	
1733732617314	-0.015640259	
1733732617315	-0.030517578	
1733732617316	-0.038528442	
1733732617317	-0.02532959	
1733732617318	-0.015411377	
1733732617319	-0.020904541	
1733732617320	-0.018234253	
1733732617321	-0.010604858	
1733732617322	-0.009002686	
1733732617323	-0.005340576	
1733732617324	-0.0021362305	
1733732617325	0.008392334	
1733732617326	0.0119018555	
1733732617327	0.005645752	
1733732617328	2.2888184E-4	
1733732617329	-0.0104522705	
1733732617330	-0.010147095	
1733732617331	0.0016021729	
1733732617332	0.008239746	
1733732617333	0.012969971	
1733732617334	0.005264282	
1733732617335	2.2888184E-4	
1733732617336	-0.012588501	
1733732617337	-0.029373169	
1733732617338	-0.03387451	
1733732617339	-0.046920776	
1733732617340	-0.037231445	
1733732617341	4.5776367E-4	
1733732617342	0.022888184	
1733732617343	0.030822754	
1733732617344	0.043792725	
1733732617345	0.051193237	
1733732617346	0.03944397	
1733732617347	0.024337769	
1733732617348	0.02166748	
1733732617349	0.027236938	
1733732617350	0.021362305	
1733732617351	-0.001373291	
1733732617352	-0.021514893	
1733732617353	-0.020751953	
1733732617354	-0.017471313	
1733732617355	-0.009689331	
1733732617356	0.009689331	
1733732617357	0.015792847	
1733732617358	0.008087158	
1733732617359	-0.0074005127	
1733732617360	-0.013656616	
1733732617361	-0.015258789	
1733732617362	-0.023956299	
1733732617363	-0.027770996	
1733732617364	-0.016860962	
1733732617365	-0.0035095215	
1733732617366	-0.00579834	
1733732617367	-0.006866455	
1733732617368	-0.010910034	
1733732617369	-0.0051116943	
1733732617370	0.0016784668	
1733732617371	-0.005569458	
1733732617372	0.007247925	
1733732617373	0.0038146973	
1733732617374	-0.005569458	
1733732617375	0.01953125	
1733732617376	0.032806396	
1733732617377	0.024337769	
1733732617378	0.023117065	
1733732617379	0.030822754	
1733732617380	0.022735596	
1733732617381	0.007247925	
1733732617382	0.0022888184	
1733732617383	-0.015487671	
1733732617384	-0.036087036	
1733732617385	-0.04096985	
1733732617386	-0.03265381	
1733732617387	-0.025253296	
1733732617388	-0.019760132	
1733732617389	-0.008087158	
1733732617390	0.0020599365	
1733732617391	0.009307861	
1733732617392	0.017242432	
1733732617393	0.021514893	
1733732617394	0.02166748	
1733732617395	0.009536743	
1733732617396	-0.013504028	
1733732617397	-0.012435913	
1733732617398	-0.0090789795	
1733732617399	-0.017929077	
1733732617400	-0.008392334	
1733732617401	5.340576E-4	
1733732617402	0.0017547607	
1733732617403	0.013580322	
1733732617404	0.014038086	
1733732617405	-0.004272461	
1733732617406	-0.014572144	
1733732617407	-0.027770996	
1733732617408	-0.030670166	
1733732617409	0.007858276	
1733732617410	0.042648315	
1733732617411	0.055618286	
1733732617412	0.069885254	
1733732617413	0.06340027	
1733732617414	0.062561035	
1733732617415	0.052108765	
1733732617416	0.010223389	
1733732617417	0.0048065186	
1733732617418	-0.02029419	
1733732617419	-0.0819397	
1733732617420	-0.09529114	
1733732617421	-0.08041382	
1733732617422	-0.07644653	
1733732617423	-0.078048706	
1733732617424	-0.061798096	
1733732617425	-0.0289917	
1733732617426	-0.020217896	
1733732617427	-0.015411377	
1733732617428	0.01159668	
1733732617429	0.04135132	
1733732617430	0.049209595	
1733732617431	0.06477356	
1733732617432	0.10131836	
1733732617433	0.089263916	
1733732617434	0.031585693	
1733732617435	0.00541687	
1733732617436	3.0517578E-4	
1733732617437	0.0048828125	
1733732617438	0.005874634	
1733732617439	-0.0076293945	
1733732617440	-0.01586914	
1733732617441	-0.023727417	
1733732617442	-0.0038909912	
1733732617443	0.010299683	
1733732617444	0.00579834	
1733732617445	-0.0035858154	
1733732617446	-0.01449585	
1733732617447	-0.01449585	
1733732617448	-0.024108887	
1733732617449	-0.021133423	
1733732617450	-0.021896362	
1733732617451	-0.022888184	
1733732617452	-0.0061035156	
1733732617453	-0.0019836426	
1733732617454	-0.014419556	
1733732617455	-0.019226074	
1733732617456	-0.010681152	
1733732617457	4.5776367E-4	
1733732617458	0.005569458	
1733732617459	0.016708374	
1733732617460	0.025177002	
1733732617461	0.024871826	
1733732617462	0.019073486	
1733732617463	0.012969971	
1733732617464	0.0012207031	
1733732617465	-0.03135681	
1733732617466	-0.044784546	
1733732617467	-0.020980835	
1733732617468	-8.392334E-4	
1733732617469	0.021438599	
1733732617470	0.034561157	
1733732617471	0.023956299	
1733732617472	0.041122437	
1733732617473	0.055847168	
1733732617474	0.07392883	
1733732617475	0.13084412	
1733732617476	0.09780884	
1733732617477	-0.0075531006	
1733732617478	-0.056610107	
1733732617479	-0.13320923	
1733732617480	-0.2193451	
1733732617481	-0.25108337	
1733732617482	-0.22109985	
1733732617483	-0.08895874	
1733732617484	0.101623535	
1733732617485	0.23719788	
1733732617486	0.21492004	
1733732617487	0.123672485	
1733732617488	0.06454468	
1733732617489	0.0051116943	
1733732617490	-0.024032593	
1733732617491	-0.051879883	
1733732617492	-0.06324768	
1733732617493	0.016174316	
1733732617494	0.031967163	
1733732617495	-0.053482056	
1733732617496	-0.058288574	
1733732617497	-0.031585693	
1733732617498	-0.06782532	
1733732617499	-0.07766724	
1733732617500	-0.005874634	
1733732617501	0.09971619	
1733732617502	0.09124756	
1733732617503	-0.012969971	
1733732617504	-0.015258789	
1733732617505	0.06919861	
1733732617506	0.064468384	
1733732617507	-0.02243042	
1733732617508	-0.10284424	
1733732617509	-0.17997742	
1733732617510	-0.14648438	
1733732617511	0.012893677	
1733732617512	0.15861511	
1733732617513	0.1953888	
1733732617514	0.13671875	
1733732617515	0.033416748	
1733732617516	-0.12283325	
1733732617517	-0.20927429	
1733732617518	-0.09605408	
1733732617519	0.08003235	
1733732617520	0.1499939	
1733732617521	0.13572693	
1733732617522	0.04875183	
1733732617523	-0.02571106	
1733732617524	-0.008773804	
1733732617525	-0.03074646	
1733732617526	0.0036621094	
1733732617527	0.1802063	
1733732617528	0.2292633	
1733732617529	0.12031555	
1733732617530	-0.012741089	
1733732617531	-0.20629883	
1733732617532	-0.33721924	
1733732617533	-0.31188965	
1733732617534	-0.119628906	
1733732617535	0.13580322	
1733732617536	0.22407532	
1733732617537	0.2685547	
1733732617538	0.32989502	
1733732617539	0.26779175	
1733732617540	0.09628296	
1733732617541	-0.1637268	
1733732617542	-0.33096313	
1733732617543	-0.38864136	
1733732617544	-0.43075562	
1733732617545	-0.3427887	
1733732617546	-0.1689148	
1733732617547	-0.12756348	
1733732617548	-0.22094727	
1733732617549	-0.25512695	
1733732617550	-0.1273346	
1733732617551	0.04348755	
1733732617552	0.22384644	
1733732617553	0.36437988	
1733732617554	0.37971497	
1733732617555	0.39733887	
1733732617556	0.4045868	
1733732617557	0.33874512	
1733732617558	0.23521423	
1733732617559	0.06210327	
1733732617560	-0.05393982	
1733732617561	-0.06858826	
1733732617562	-0.05065918	
1733732617563	0.0019836426	
1733732617564	0.001449585	
1733732617565	-0.008392334	
1733732617566	0.013504028	
1733732617567	-4.5776367E-4	
1733732617568	0.0012207031	
1733732617569	0.005264282	
1733732617570	-0.023422241	
1733732617571	-0.06362915	
1733732617572	-0.07469177	
1733732617573	-0.053329468	
1733732617574	-0.05973816	
1733732617575	-0.09262085	
1733732617576	-0.1335144	
1733732617577	-0.14640808	
1733732617578	-0.14022827	
1733732617579	-0.13137817	
1733732617580	-0.11100769	
1733732617581	-0.12580872	
1733732617582	-0.15068054	
1733732617583	-0.12664795	
1733732617584	-0.061645508	
1733732617585	0.027008057	
1733732617586	0.056991577	
1733732617587	-0.0011444092	
1733732617588	-0.046463013	
1733732617589	-0.11009216	
1733732617590	-0.17181396	
1733732617591	-0.07286072	
1733732617592	0.08522034	
1733732617593	0.13130188	
1733732617594	0.075912476	
1733732617595	0.09719849	
1733732617596	0.19264221	
1733732617597	0.27755737	
1733732617598	0.3211975	
1733732617599	0.25924683	
1733732617600	0.21881104	
1733732617601	0.21896362	
1733732617602	0.15724182	
1733732617603	0.07209778	
1733732617604	-0.0064086914	
1733732617605	-0.060577393	
1733732617606	-0.08987427	
1733732617607	-0.12382507	
1733732617608	-0.15533447	
1733732617609	-0.117492676	
1733732617610	-0.031433105	
1733732617611	-0.00579834	
1733732617612	-0.022277832	
1733732617613	-0.0315094	
1733732617614	-0.0061798096	
1733732617615	-0.022888184	
1733732617616	-0.13336182	
1733732617617	-0.15106201	
1733732617618	-0.11268616	
1733732617619	-0.08514404	
1733732617620	0.038909912	
1733732617621	0.051956177	
1733732617622	-0.049057007	
1733732617623	-0.030441284	
1733732617624	-0.035629272	
1733732617625	-0.061340332	
1733732617626	0.006713867	
1733732617627	0.043182373	
1733732617628	0.029525757	
1733732617629	0.014724731	
1733732617630	-0.002746582	
1733732617631	-0.023117065	
1733732617632	-0.032730103	
1733732617633	-0.020523071	
1733732617634	-0.010681152	
1733732617635	-0.004119873	
1733732617636	0.0060272217	
1733732617637	0.005340576	
1733732617638	0.0065612793	
1733732617639	0.021514893	
1733732617640	0.03364563	
1733732617641	0.033111572	
1733732617642	0.03112793	
1733732617643	0.036621094	
1733732617644	0.039520264	
1733732617645	0.03753662	
1733732617646	0.037994385	
1733732617647	0.04219055	
1733732617648	0.035476685	
1733732617649	0.02418518	
1733732617650	0.019378662	
1733732617651	0.0119018555	
1733732617652	0.005264282	
1733732617653	-0.0036621094	
1733732617654	-0.014801025	
1733732617655	-0.018005371	
1733732617656	-0.02746582	
1733732617657	-0.026245117	
1733732617658	-0.016174316	
1733732617659	-0.019683838	
1733732617660	-0.014419556	
1733732617661	-0.018005371	
1733732617662	-0.024032593	
1733732617663	-0.013885498	
1733732617664	-0.014724731	
1733732617665	-0.020751953	
1733732617666	-0.025405884	
1733732617667	-0.026855469	
1733732617668	-0.0090789795	
1733732617669	0.019454956	
1733732617670	0.0415802	
1733732617671	0.062408447	
1733732617672	0.07034302	
1733732617673	0.061035156	
1733732617674	0.043411255	
1733732617675	-0.02029419	
1733732617676	-0.08605957	
1733732617677	-0.06866455	
1733732617678	-0.016937256	
1733732617679	-0.0038909912	
1733732617680	-0.02166748	
1733732617681	-0.03112793	
1733732617682	-0.036315918	
1733732617683	-0.022201538	
1733732617684	-0.004119873	
1733732617685	-0.022583008	
1733732617686	-0.03303528	
1733732617687	-0.028305054	
1733732617688	-0.037994385	
1733732617689	-0.03791809	
1733732617690	-1.5258789E-4	
1733732617691	0.04020691	
1733732617692	0.042495728	
1733732617693	0.041122437	
1733732617694	0.046844482	
1733732617695	0.0566864	
1733732617696	0.06523132	
1733732617697	0.053634644	
1733732617698	0.04966736	
1733732617699	0.053634644	
1733732617700	0.04966736	
1733732617701	0.035858154	
1733732617702	0.0064849854	
1733732617703	-0.005569458	
1733732617704	-0.012054443	
1733732617705	-0.017166138	
1733732617706	-0.0119018555	
1733732617707	-0.010299683	
1733732617708	-0.0038909912	
1733732617709	-0.0061798096	
1733732617710	-0.009002686	
1733732617711	-0.0035858154	
1733732617712	-0.012359619	
1733732617713	-0.016555786	
1733732617714	-0.023803711	
1733732617715	-0.026779175	
1733732617716	-0.03440857	
1733732617717	-0.046463013	
1733732617718	-0.03829956	
1733732617719	-0.04371643	
1733732617720	-0.047912598	
1733732617721	-0.041885376	
1733732617722	-0.031280518	
1733732617723	-0.008010864	
1733732617724	0.004119873	
1733732617725	0.0061035156	
1733732617726	0.005340576	
1733732617727	0.001449585	
1733732617728	-0.0016784668	
1733732617729	-0.0022125244	
1733732617730	0.004348755	
1733732617731	0.0146484375	
1733732617732	0.030441284	
1733732617733	0.032424927	
1733732617734	0.019683838	
1733732617735	0.012130737	
1733732617736	-0.004119873	
1733732617737	-0.019760132	
1733732617738	-0.009613037	
1733732617739	0.010528564	
1733732617740	0.0064849854	
1733732617741	0.028381348	
1733732617742	0.13839722	
1733732617743	0.22537231	
1733732617744	0.16143799	
1733732617745	0.042419434	
1733732617746	-0.022354126	
1733732617747	-0.076828	
1733732617748	-0.13710022	
1733732617749	-0.13595581	
1733732617750	-0.095214844	
1733732617751	-0.10055542	
1733732617752	-0.0680542	
1733732617753	-0.0031280518	
1733732617754	0.044937134	
1733732617755	0.1638794	
1733732617756	0.17547607	
1733732617757	0.00579834	
1733732617758	-0.06599426	
1733732617759	-0.029449463	
1733732617760	-0.109176636	
1733732617761	-0.20973206	
1733732617762	-0.21606445	
1733732617763	-0.1902771	
1733732617764	-0.10688782	
1733732617765	0.008392334	
1733732617766	0.082092285	
1733732617767	0.08621216	
1733732617768	0.06225586	
1733732617769	0.05783081	
1733732617770	0.027160645	
1733732617771	0.012207031	
1733732617772	0.067214966	
1733732617773	0.13618469	
1733732617774	0.1687622	
1733732617775	0.14671326	
1733732617776	0.07484436	
1733732617777	0.037384033	
1733732617778	0.030517578	
1733732617779	-0.0031280518	
1733732617780	0.010910034	
1733732617781	0.049591064	
1733732617782	0.07118225	
1733732617783	0.082473755	
1733732617784	0.05355835	
1733732617785	-0.024108887	
1733732617786	-0.14083862	
1733732617787	-0.14785767	
1733732617788	-0.025863647	
1733732617789	0.026855469	
1733732617790	6.1035156E-4	
1733732617791	-0.0075531006	
1733732617792	-0.055999756	
1733732617793	-0.14266968	
1733732617794	-0.14816284	
1733732617795	-0.09399414	
1733732617796	-0.06362915	
1733732617797	-0.07972717	
1733732617798	-0.07141113	
1733732617799	0.0019073486	
1733732617800	0.02357483	
1733732617801	-0.013427734	
1733732617802	0.00831604	
1733732617803	0.03845215	
1733732617804	0.03173828	
1733732617805	0.06500244	
1733732617806	0.08010864	
1733732617807	0.051116943	
1733732617808	0.016555786	
1733732617809	-0.02357483	
1733732617810	-0.029373169	
1733732617811	0.0047302246	
1733732617812	0.041503906	
1733732617813	0.079193115	
1733732617814	0.028152466	
1733732617815	-0.06568909	
1733732617816	-0.07789612	
1733732617817	-0.07354736	
1733732617818	-0.02357483	
1733732617819	0.09056091	
1733732617820	0.12947083	
1733732617821	0.083465576	
1733732617822	0.035095215	
1733732617823	0.009765625	
1733732617824	-0.024490356	
1733732617825	-0.045700073	
1733732617826	-0.0025939941	
1733732617827	0.03303528	
1733732617828	0.026168823	
1733732617829	0.026931763	
1733732617830	0.027542114	
1733732617831	0.029525757	
1733732617832	0.03364563	
1733732617833	0.014877319	
1733732617834	-0.0012969971	
1733732617835	-0.0036621094	
1733732617836	0.0012207031	
1733732617837	0.0016784668	
1733732617838	-0.009765625	
1733732617839	-0.016403198	
1733732617840	-0.024719238	
1733732617841	-0.028152466	
1733732617842	-0.025177002	
1733732617843	-0.024108887	
1733732617844	-0.013046265	
1733732617845	-0.00579834	
1733732617846	-0.011444092	
1733732617847	-0.018157959	
1733732617848	-0.022735596	
1733732617849	-0.02067566	
1733732617850	-0.013580322	
1733732617851	-0.009002686	
1733732617852	-0.014801025	
1733732617853	-0.01838684	
1733732617854	-0.023803711	
1733732617855	-0.025177002	
1733732617856	-0.026855469	
1733732617857	-0.039520264	
1733732617858	-0.043182373	
1733732617859	-0.042266846	
1733732617860	-0.069885254	
1733732617861	-0.09780884	
1733732617862	-0.09376526	
1733732617863	-0.04234314	
1733732617864	0.0077819824	
1733732617865	0.034484863	
1733732617866	0.05683899	
1733732617867	0.05393982	
1733732617868	0.019683838	
1733732617869	-0.013656616	
1733732617870	0.045776367	
1733732617871	0.14846802	
1733732617872	0.1184082	
1733732617873	0.060043335	
1733732617874	0.14465332	
1733732617875	0.266037	
1733732617876	0.25520325	
1733732617877	0.07072449	
1733732617878	-0.08621216	
1733732617879	-0.08338928	
1733732617880	-0.082473755	
1733732617881	-0.18989563	
1733732617882	-0.22964478	
1733732617883	-0.17349243	
1733732617884	-0.085754395	
1733732617885	0.0029754639	
1733732617886	0.001373291	
1733732617887	0.1247406	
1733732617888	0.28320312	
1733732617889	0.17669678	
1733732617890	0.11039734	
1733732617891	0.08583069	
1733732617892	-0.1662445	
1733732617893	-0.3251648	
1733732617894	-0.26870728	
1733732617895	-0.18135071	
1733732617896	-0.1159668	
1733732617897	-0.062408447	
1733732617898	0.06492615	
1733732617899	0.29006958	
1733732617900	0.29701233	
1733732617901	0.07545471	
1733732617902	0.06072998	
1733732617903	0.17471313	
